0.752733,0.730747,0.159375,0.319714,0.266970,0.307124,0.270779,0.285674,0.281439,0.283470,0.266059,0.277535,0.280732,0.282037,0.273571,0.272187,0.267126,0.282263,0.262759,0.272487,0.264431,0.258931,0.249464,0.261821,0.254205,0.262991,0.234557,0.256163,0.211733,0.225056,0.197015,0.194620,0.162682,0.170036,0.142870,0.155596,0.133188,0.154629,0.165393,0.205240,0.209297,0.243445,0.265801,0.291326,0.301612,0.303260,0.301884,0.286274,0.302693,0.292189,0.300273,0.285059,0.294244,0.274359,0.304321,0.267213,0.269725,0.257214,0.268063,0.235903,0.262583,0.247472,0.262220,0.250831,0.242107,0.236872,0.251102,0.230194,0.239693,0.237910,0.242800,0.247525,0.241861,0.236587,0.241413,0.253621,0.232831,0.233056,0.233713,0.257579,0.265461,0.278298,0.271197,0.278126,0.276286,0.277469,0.265430,0.247710,0.242052,0.246587,0.233534,0.211796,0.231786,0.219872,0.231452,0.216799,0.227212,0.170316,0.136256,0.153336,0.463422,0.597701,0.920638,0.640923,0.068871,0.028682,0.167428,0.157696,0.191830,0.158267,0.209649,0.147670,0.218344,0.143122,0.230391,0.102509,0.000000,0.000000,0.000000,0.000000,0.000000,0.000000,0.000000,0.000000,0.000000,0.000000,0.000000,0.000000,0.000000,0.000000,0.000000,0.000000,0.000000,0.000000,0.000000,0.000000,0.000000,0.000000,0.000000,0.000000,0.000000,0.000000,0.000000,0.000000,0.000000,0.000000,0.000000,0.000000,0.000000,0.000000,0.000000,0.000000,0.000000,0.000000,0.000000,0.000000,0.000000,0.000000,0.000000,0.000000,0.000000,0.000000,0.000000,0.000000,0.000000,0.000000,0.000000,0.000000,0.000000,0.000000,0.000000,0.000000,0.000000,0.000000,0.000000,0.000000,0.000000,0.000000,0.000000,0.000000,0.000000,0.000000,0.000000,0.000000,0.000000,0.000000,0.000000,0.000000
0.628595,0.571475,-0.009939,0.076968,0.122889,0.170717,0.142956,0.171063,0.157647,0.162291,0.163033,0.165251,0.156195,0.173852,0.162099,0.174743,0.167370,0.172260,0.162814,0.178717,0.160566,0.170482,0.157549,0.166379,0.149927,0.163861,0.129142,0.147496,0.112918,0.119430,0.083183,0.095984,0.054228,0.077860,0.043040,0.059578,0.050576,0.093480,0.097575,0.162378,0.168839,0.202563,0.214868,0.239260,0.232380,0.246754,0.235539,0.243338,0.243409,0.237432,0.239345,0.237585,0.238934,0.228745,0.240032,0.233624,0.232810,0.226731,0.225944,0.214916,0.228960,0.211044,0.221484,0.214038,0.218137,0.215753,0.216645,0.211363,0.220512,0.222480,0.213705,0.219621,0.218872,0.222501,0.214398,0.228512,0.213307,0.232205,0.211740,0.236331,0.225641,0.252228,0.231959,0.281905,0.243169,0.276575,0.229543,0.255740,0.215350,0.241173,0.204682,0.237299,0.204587,0.233222,0.203006,0.231729,0.190857,0.179574,0.069042,0.289084,0.569171,0.931656,0.777415,0.187632,0.196550,0.186617,0.184332,0.181482,0.182203,0.177386,0.166858,0.179189,0.153471,0.193211,0.119597,0.000000,0.000000,0.000000,0.000000,0.000000,0.000000,0.000000,0.000000,0.000000,0.000000,0.000000,0.000000,0.000000,0.000000,0.000000,0.000000,0.000000,0.000000,0.000000,0.000000,0.000000,0.000000,0.000000,0.000000,0.000000,0.000000,0.000000,0.000000,0.000000,0.000000,0.000000,0.000000,0.000000,0.000000,0.000000,0.000000,0.000000,0.000000,0.000000,0.000000,0.000000,0.000000,0.000000,0.000000,0.000000,0.000000,0.000000,0.000000,0.000000,0.000000,0.000000,0.000000,0.000000,0.000000,0.000000,0.000000,0.000000,0.000000,0.000000,0.000000,0.000000,0.000000,0.000000,0.000000,0.000000,0.000000,0.000000,0.000000,0.000000,0.000000,0.000000,0.000000,0.000000
0.735441,0.738430,0.084738,0.206169,0.121107,0.179561,0.122728,0.175328,0.116942,0.162638,0.113821,0.158204,0.110882,0.164529,0.117946,0.159603,0.125687,0.151115,0.119840,0.146836,0.117802,0.139753,0.106823,0.125403,0.105927,0.107156,0.082527,0.071278,0.051213,0.047551,0.031255,0.016727,0.018052,0.006963,0.016562,0.029653,0.068658,0.104682,0.144912,0.166005,0.194245,0.193247,0.197744,0.199201,0.205451,0.199798,0.199429,0.209977,0.196361,0.211311,0.187581,0.196527,0.181455,0.190044,0.173889,0.183363,0.149975,0.186214,0.150281,0.184826,0.154310,0.176114,0.156799,0.185302,0.150928,0.173917,0.166842,0.180942,0.171685,0.179801,0.169743,0.186618,0.169082,0.174581,0.177820,0.183700,0.195203,0.201580,0.202081,0.209234,0.236516,0.219635,0.232131,0.204232,0.198220,0.197523,0.187220,0.188549,0.175114,0.185507,0.167437,0.189674,0.162686,0.171537,0.085300,0.042758,0.034345,0.351957,0.558115,0.945940,0.633288,0.117262,0.161950,0.167508,0.145940,0.171719,0.128953,0.172226,0.122844,0.174619,0.107503,0.195883,0.059866,0.000000,0.000000,0.000000,0.000000,0.000000,0.000000,0.000000,0.000000,0.000000,0.000000,0.000000,0.000000,0.000000,0.000000,0.000000,0.000000,0.000000,0.000000,0.000000,0.000000,0.000000,0.000000,0.000000,0.000000,0.000000,0.000000,0.000000,0.000000,0.000000,0.000000,0.000000,0.000000,0.000000,0.000000,0.000000,0.000000,0.000000,0.000000,0.000000,0.000000,0.000000,0.000000,0.000000,0.000000,0.000000,0.000000,0.000000,0.000000,0.000000,0.000000,0.000000,0.000000,0.000000,0.000000,0.000000,0.000000,0.000000,0.000000,0.000000,0.000000,0.000000,0.000000,0.000000,0.000000,0.000000,0.000000,0.000000,0.000000,0.000000,0.000000,0.000000,0.000000,0.000000,0.000000,0.000000
0.738411,0.699388,0.051565,0.203068,0.125145,0.175656,0.134468,0.155478,0.135086,0.151918,0.130952,0.147953,0.130422,0.151835,0.135284,0.153212,0.132960,0.152491,0.123780,0.144768,0.132993,0.149689,0.125274,0.142997,0.113791,0.118125,0.093140,0.094810,0.063433,0.068685,0.016822,0.045053,0.006327,0.042213,0.026445,0.088469,0.094124,0.154359,0.149767,0.192996,0.171664,0.203373,0.190618,0.214177,0.187296,0.213770,0.189432,0.192350,0.188609,0.184234,0.170527,0.184877,0.174869,0.174119,0.170372,0.156984,0.169234,0.166114,0.167213,0.156042,0.168148,0.155848,0.161176,0.166756,0.158889,0.164990,0.160763,0.162649,0.162948,0.172883,0.148413,0.172325,0.147386,0.177823,0.148881,0.181137,0.165981,0.199114,0.168827,0.220179,0.200655,0.214594,0.170751,0.193225,0.152915,0.174786,0.137882,0.180397,0.140264,0.157567,0.130595,0.162730,0.135497,0.162321,0.122822,0.117671,-0.002354,0.199517,0.399650,0.729120,0.569884,0.010950,0.094288,0.108984,0.100750,0.106958,0.119097,0.109126,0.102468,0.133426,0.081441,0.160768,0.024751,0.000000,0.000000,0.000000,0.000000,0.000000,0.000000,0.000000,0.000000,0.000000,0.000000,0.000000,0.000000,0.000000,0.000000,0.000000,0.000000,0.000000,0.000000,0.000000,0.000000,0.000000,0.000000,0.000000,0.000000,0.000000,0.000000,0.000000,0.000000,0.000000,0.000000,0.000000,0.000000,0.000000,0.000000,0.000000,0.000000,0.000000,0.000000,0.000000,0.000000,0.000000,0.000000,0.000000,0.000000,0.000000,0.000000,0.000000,0.000000,0.000000,0.000000,0.000000,0.000000,0.000000,0.000000,0.000000,0.000000,0.000000,0.000000,0.000000,0.000000,0.000000,0.000000,0.000000,0.000000,0.000000,0.000000,0.000000,0.000000,0.000000,0.000000,0.000000,0.000000,0.000000,0.000000,0.000000
0.680462,0.680163,-0.019243,0.161988,0.107638,0.159469,0.108530,0.181673,0.105343,0.170670,0.122808,0.162025,0.126172,0.160585,0.134910,0.170461,0.153536,0.153279,0.133147,0.134548,0.133930,0.149337,0.123503,0.132191,0.136110,0.124082,0.117762,0.088232,0.077982,0.050404,0.034911,0.029181,0.011273,0.007717,0.019675,0.035083,0.044768,0.059371,0.083085,0.134263,0.151623,0.193624,0.185462,0.201901,0.185957,0.210019,0.188097,0.224879,0.175897,0.205493,0.179633,0.207048,0.151796,0.175597,0.167050,0.183068,0.155278,0.183996,0.158274,0.165789,0.163127,0.179203,0.165600,0.174204,0.172746,0.166110,0.163413,0.178934,0.168368,0.177446,0.175533,0.165535,0.176078,0.159132,0.172943,0.188449,0.198270,0.209738,0.205657,0.215887,0.229939,0.219711,0.214940,0.201537,0.191359,0.199762,0.169963,0.201576,0.163093,0.200585,0.164275,0.205514,0.165423,0.218431,0.136584,0.137876,0.032692,0.345142,0.530248,0.947962,0.687465,0.029553,0.139223,0.178291,0.180187,0.199984,0.168008,0.188346,0.170288,0.197101,0.159418,0.222399,0.112328,0.000000,0.000000,0.000000,0.000000,0.000000,0.000000,0.000000,0.000000,0.000000,0.000000,0.000000,0.000000,0.000000,0.000000,0.000000,0.000000,0.000000,0.000000,0.000000,0.000000,0.000000,0.000000,0.000000,0.000000,0.000000,0.000000,0.000000,0.000000,0.000000,0.000000,0.000000,0.000000,0.000000,0.000000,0.000000,0.000000,0.000000,0.000000,0.000000,0.000000,0.000000,0.000000,0.000000,0.000000,0.000000,0.000000,0.000000,0.000000,0.000000,0.000000,0.000000,0.000000,0.000000,0.000000,0.000000,0.000000,0.000000,0.000000,0.000000,0.000000,0.000000,0.000000,0.000000,0.000000,0.000000,0.000000,0.000000,0.000000,0.000000,0.000000,0.000000,0.000000,0.000000,0.000000,0.000000
0.582148,0.524486,-0.040619,0.117758,0.091763,0.138946,0.111530,0.125743,0.103874,0.130124,0.105590,0.130326,0.109778,0.128742,0.118560,0.143356,0.113501,0.147762,0.115433,0.145157,0.123404,0.135450,0.114472,0.138459,0.109872,0.131972,0.095698,0.099075,0.079183,0.091507,0.051040,0.065441,0.038299,0.032853,0.017026,0.025492,0.037566,0.070452,0.102970,0.138451,0.164892,0.179722,0.197564,0.195643,0.209669,0.204780,0.211915,0.207177,0.220680,0.201192,0.204712,0.196701,0.210678,0.187019,0.204415,0.185928,0.197520,0.185537,0.195727,0.182049,0.190511,0.184997,0.191566,0.186168,0.193935,0.196372,0.188152,0.195834,0.192691,0.193774,0.188627,0.204875,0.194758,0.205829,0.199541,0.203790,0.199769,0.209386,0.202088,0.230942,0.219504,0.231907,0.251429,0.260209,0.253361,0.246993,0.230384,0.230309,0.232989,0.210821,0.218748,0.210217,0.219952,0.200888,0.227595,0.189868,0.234436,0.169401,0.146259,0.084914,0.390429,0.629603,1.005635,0.672679,0.162643,0.204770,0.197354,0.168570,0.186473,0.161475,0.177533,0.151123,0.192816,0.138816,0.208046,0.107744,0.000000,0.000000,0.000000,0.000000,0.000000,0.000000,0.000000,0.000000,0.000000,0.000000,0.000000,0.000000,0.000000,0.000000,0.000000,0.000000,0.000000,0.000000,0.000000,0.000000,0.000000,0.000000,0.000000,0.000000,0.000000,0.000000,0.000000,0.000000,0.000000,0.000000,0.000000,0.000000,0.000000,0.000000,0.000000,0.000000,0.000000,0.000000,0.000000,0.000000,0.000000,0.000000,0.000000,0.000000,0.000000,0.000000,0.000000,0.000000,0.000000,0.000000,0.000000,0.000000,0.000000,0.000000,0.000000,0.000000,0.000000,0.000000,0.000000,0.000000,0.000000,0.000000,0.000000,0.000000,0.000000,0.000000,0.000000,0.000000,0.000000,0.000000,0.000000,0.000000
0.752856,0.612510,0.048254,0.200151,0.108752,0.146238,0.108372,0.134260,0.098839,0.128459,0.110138,0.122178,0.111489,0.129109,0.109048,0.127975,0.119954,0.127700,0.120435,0.131987,0.111628,0.134840,0.114109,0.121509,0.099562,0.110541,0.084790,0.101443,0.062343,0.080178,0.042743,0.056614,0.016725,0.031322,-0.004850,0.015266,-0.000872,0.050481,0.046097,0.113606,0.117278,0.175367,0.170442,0.204211,0.185508,0.200746,0.181486,0.203310,0.186011,0.191845,0.192835,0.195343,0.179427,0.190584,0.191467,0.194611,0.192205,0.205823,0.194959,0.195648,0.186134,0.178990,0.166902,0.153488,0.131032,0.141889,0.138679,0.142309,0.142685,0.147137,0.141918,0.155170,0.145507,0.160427,0.152054,0.168284,0.118917,0.076065,0.010973,0.318332,0.561857,0.883533,0.614436,0.105749,0.141856,0.155497,0.138451,0.156147,0.126278,0.165588,0.111618,0.171624,0.095504,0.192568,0.039340,0.000000,0.000000,0.000000,0.000000,0.000000,0.000000,0.000000,0.000000,0.000000,0.000000,0.000000,0.000000,0.000000,0.000000,0.000000,0.000000,0.000000,0.000000,0.000000,0.000000,0.000000,0.000000,0.000000,0.000000,0.000000,0.000000,0.000000,0.000000,0.000000,0.000000,0.000000,0.000000,0.000000,0.000000,0.000000,0.000000,0.000000,0.000000,0.000000,0.000000,0.000000,0.000000,0.000000,0.000000,0.000000,0.000000,0.000000,0.000000,0.000000,0.000000,0.000000,0.000000,0.000000,0.000000,0.000000,0.000000,0.000000,0.000000,0.000000,0.000000,0.000000,0.000000,0.000000,0.000000,0.000000,0.000000,0.000000,0.000000,0.000000,0.000000,0.000000,0.000000,0.000000,0.000000,0.000000,0.000000,0.000000,0.000000,0.000000,0.000000,0.000000,0.000000,0.000000,0.000000,0.000000,0.000000,0.000000,0.000000,0.000000,0.000000,0.000000,0.000000,0.000000
0.744590,0.670860,0.101100,0.267111,0.185863,0.245533,0.192555,0.231353,0.202212,0.217351,0.203716,0.211566,0.202861,0.206809,0.206762,0.207678,0.204288,0.208025,0.202727,0.199993,0.210780,0.198033,0.189914,0.199136,0.184497,0.166202,0.164511,0.154668,0.141401,0.133880,0.098063,0.102472,0.072468,0.074317,0.056941,0.078718,0.073404,0.117982,0.119081,0.163606,0.164347,0.193862,0.194108,0.234959,0.212319,0.236581,0.219518,0.231102,0.233548,0.235137,0.226017,0.227205,0.218904,0.216829,0.222126,0.208985,0.211736,0.215585,0.209771,0.193802,0.207387,0.196931,0.206033,0.204404,0.216085,0.183965,0.222668,0.193204,0.208319,0.200832,0.203860,0.180732,0.223882,0.195546,0.215183,0.202681,0.203140,0.197129,0.192325,0.193136,0.194335,0.188034,0.191405,0.194787,0.197775,0.188378,0.181927,0.196529,0.167379,0.186136,0.164305,0.172344,0.170023,0.178208,0.162148,0.174415,0.173920,0.183296,0.169387,0.173753,0.191337,0.198286,0.208961,0.211308,0.222218,0.208021,0.213661,0.208786,0.203177,0.178728,0.207414,0.157208,0.186817,0.158429,0.180082,0.142969,0.175682,0.146153,0.176325,0.114707,0.095368,0.070069,0.339849,0.479363,0.834357,0.664961,0.050341,0.023579,0.116802,0.099106,0.130175,0.107657,0.139506,0.101639,0.150660,0.093844,0.179158,0.054309,0.000000,0.000000,0.000000,0.000000,0.000000,0.000000,0.000000,0.000000,0.000000,0.000000,0.000000,0.000000,0.000000,0.000000,0.000000,0.000000,0.000000,0.000000,0.000000,0.000000,0.000000,0.000000,0.000000,0.000000,0.000000,0.000000,0.000000,0.000000,0.000000,0.000000,0.000000,0.000000,0.000000,0.000000,0.000000,0.000000,0.000000,0.000000,0.000000,0.000000,0.000000,0.000000,0.000000,0.000000,0.000000,0.000000,0.000000,0.000000,0.000000,0.000000
0.723772,0.689148,-0.008291,0.098756,0.111658,0.154858,0.128024,0.162956,0.134976,0.160788,0.139865,0.165277,0.146791,0.177989,0.134698,0.183649,0.146195,0.179299,0.153082,0.182926,0.151680,0.182049,0.139520,0.171109,0.141180,0.152574,0.126771,0.161342,0.127371,0.161625,0.127858,0.120297,0.089985,0.079234,0.052315,0.038295,0.016864,0.018941,0.008029,0.020642,0.059674,0.085466,0.129901,0.166963,0.190927,0.198025,0.227553,0.216584,0.231347,0.226853,0.228527,0.221076,0.235086,0.218576,0.224732,0.219369,0.215783,0.218305,0.213459,0.206537,0.194109,0.208382,0.191935,0.210349,0.206475,0.210714,0.189860,0.206941,0.182278,0.211143,0.187704,0.211380,0.190589,0.220432,0.186719,0.224365,0.198889,0.227005,0.202625,0.221488,0.203440,0.241919,0.218621,0.257135,0.237463,0.270631,0.265571,0.281692,0.257927,0.251889,0.241324,0.233498,0.223249,0.229254,0.210056,0.206191,0.213960,0.211423,0.207656,0.215959,0.180864,0.137221,0.073234,0.340558,0.612390,0.945147,0.765961,0.102303,0.160446,0.180810,0.175739,0.165227,0.163138,0.180397,0.154691,0.204376,0.151084,0.231858,0.100002,0.000000,0.000000,0.000000,0.000000,0.000000,0.000000,0.000000,0.000000,0.000000,0.000000,0.000000,0.000000,0.000000,0.000000,0.000000,0.000000,0.000000,0.000000,0.000000,0.000000,0.000000,0.000000,0.000000,0.000000,0.000000,0.000000,0.000000,0.000000,0.000000,0.000000,0.000000,0.000000,0.000000,0.000000,0.000000,0.000000,0.000000,0.000000,0.000000,0.000000,0.000000,0.000000,0.000000,0.000000,0.000000,0.000000,0.000000,0.000000,0.000000,0.000000,0.000000,0.000000,0.000000,0.000000,0.000000,0.000000,0.000000,0.000000,0.000000,0.000000,0.000000,0.000000,0.000000,0.000000,0.000000,0.000000,0.000000,0.000000,0.000000
0.660854,0.659209,-0.009086,0.163007,0.097669,0.157055,0.087634,0.146869,0.100323,0.142457,0.118512,0.147699,0.124819,0.143564,0.134570,0.139845,0.130015,0.139889,0.137724,0.132241,0.134912,0.126461,0.131857,0.134708,0.125971,0.117608,0.116863,0.103652,0.092184,0.069397,0.054315,0.042297,0.023026,0.014886,0.011874,0.012850,0.020690,0.069576,0.087881,0.140923,0.159722,0.184720,0.165133,0.194318,0.181133,0.204594,0.186380,0.211425,0.184198,0.214468,0.176050,0.203151,0.177506,0.193684,0.167717,0.191442,0.157266,0.184407,0.156617,0.171803,0.152192,0.166520,0.159701,0.162664,0.163747,0.168147,0.166869,0.171389,0.169082,0.172864,0.172385,0.166171,0.183250,0.168935,0.189709,0.173750,0.181309,0.172712,0.176583,0.185021,0.206663,0.200300,0.219777,0.231331,0.230763,0.226416,0.203373,0.210839,0.189248,0.189950,0.174882,0.188054,0.156524,0.193416,0.163190,0.193033,0.141483,0.128620,0.003362,0.284503,0.555890,0.972306,0.685143,0.100748,0.154434,0.131209,0.126479,0.148221,0.119260,0.138069,0.115074,0.149158,0.097106,0.178371,0.053162,0.000000,0.000000,0.000000,0.000000,0.000000,0.000000,0.000000,0.000000,0.000000,0.000000,0.000000,0.000000,0.000000,0.000000,0.000000,0.000000,0.000000,0.000000,0.000000,0.000000,0.000000,0.000000,0.000000,0.000000,0.000000,0.000000,0.000000,0.000000,0.000000,0.000000,0.000000,0.000000,0.000000,0.000000,0.000000,0.000000,0.000000,0.000000,0.000000,0.000000,0.000000,0.000000,0.000000,0.000000,0.000000,0.000000,0.000000,0.000000,0.000000,0.000000,0.000000,0.000000,0.000000,0.000000,0.000000,0.000000,0.000000,0.000000,0.000000,0.000000,0.000000,0.000000,0.000000,0.000000,0.000000,0.000000,0.000000,0.000000,0.000000,0.000000,0.000000,0.000000,0.000000
0.768593,0.641158,0.042520,0.194858,0.096328,0.157295,0.120725,0.144240,0.111673,0.144201,0.115899,0.136927,0.126695,0.137331,0.133792,0.145479,0.126695,0.155141,0.126941,0.144159,0.115045,0.141603,0.111984,0.142471,0.097676,0.123079,0.075495,0.088814,0.046381,0.057389,0.012893,0.037458,-0.008500,0.030819,0.007957,0.061631,0.067563,0.119930,0.114976,0.157793,0.167224,0.198536,0.193349,0.212830,0.195700,0.207401,0.200458,0.195884,0.208498,0.188051,0.199031,0.191751,0.189772,0.183872,0.190157,0.169879,0.181237,0.179973,0.175149,0.174552,0.184291,0.169575,0.171950,0.178627,0.170831,0.189650,0.177453,0.188864,0.178927,0.201972,0.175976,0.210718,0.178454,0.210426,0.186046,0.199443,0.185199,0.225559,0.204693,0.245929,0.222910,0.270895,0.239476,0.243873,0.208704,0.235858,0.188579,0.223066,0.190851,0.214453,0.184049,0.209725,0.175628,0.211959,0.163544,0.130201,0.042309,0.287870,0.515769,0.864242,0.579555,0.083268,0.187655,0.159996,0.177652,0.158174,0.174022,0.166900,0.148173,0.180957,0.134266,0.208177,0.069730,0.000000,0.000000,0.000000,0.000000,0.000000,0.000000,0.000000,0.000000,0.000000,0.000000,0.000000,0.000000,0.000000,0.000000,0.000000,0.000000,0.000000,0.000000,0.000000,0.000000,0.000000,0.000000,0.000000,0.000000,0.000000,0.000000,0.000000,0.000000,0.000000,0.000000,0.000000,0.000000,0.000000,0.000000,0.000000,0.000000,0.000000,0.000000,0.000000,0.000000,0.000000,0.000000,0.000000,0.000000,0.000000,0.000000,0.000000,0.000000,0.000000,0.000000,0.000000,0.000000,0.000000,0.000000,0.000000,0.000000,0.000000,0.000000,0.000000,0.000000,0.000000,0.000000,0.000000,0.000000,0.000000,0.000000,0.000000,0.000000,0.000000,0.000000,0.000000,0.000000,0.000000,0.000000,0.000000
0.741654,0.664191,0.074817,0.282609,0.173801,0.260714,0.174975,0.259095,0.178324,0.237865,0.185592,0.237717,0.186762,0.229040,0.205558,0.227512,0.207916,0.226533,0.202223,0.223365,0.197926,0.206186,0.205040,0.198644,0.184362,0.164976,0.171850,0.152276,0.141972,0.113106,0.119915,0.090763,0.098841,0.078297,0.098166,0.116935,0.160594,0.179380,0.217528,0.222970,0.239236,0.234545,0.240723,0.246181,0.238317,0.235490,0.224876,0.236047,0.222844,0.229290,0.202880,0.234202,0.208320,0.211147,0.195372,0.199148,0.185441,0.211350,0.183604,0.206640,0.184347,0.204013,0.184596,0.190263,0.176037,0.189626,0.202298,0.193315,0.182711,0.201217,0.182541,0.172628,0.192947,0.175454,0.223052,0.210054,0.230585,0.222060,0.244513,0.204486,0.230759,0.191344,0.208645,0.152398,0.197031,0.164386,0.204815,0.151625,0.185017,0.141326,0.183635,0.133111,0.125790,0.031366,0.259067,0.440317,0.765936,0.509183,-0.004299,0.105913,0.114152,0.134613,0.119338,0.111713,0.132502,0.120745,0.150801,0.103746,0.172067,0.032864,0.000000,0.000000,0.000000,0.000000,0.000000,0.000000,0.000000,0.000000,0.000000,0.000000,0.000000,0.000000,0.000000,0.000000,0.000000,0.000000,0.000000,0.000000,0.000000,0.000000,0.000000,0.000000,0.000000,0.000000,0.000000,0.000000,0.000000,0.000000,0.000000,0.000000,0.000000,0.000000,0.000000,0.000000,0.000000,0.000000,0.000000,0.000000,0.000000,0.000000,0.000000,0.000000,0.000000,0.000000,0.000000,0.000000,0.000000,0.000000,0.000000,0.000000,0.000000,0.000000,0.000000,0.000000,0.000000,0.000000,0.000000,0.000000,0.000000,0.000000,0.000000,0.000000,0.000000,0.000000,0.000000,0.000000,0.000000,0.000000,0.000000,0.000000,0.000000,0.000000,0.000000,0.000000,0.000000,0.000000,0.000000,0.000000
0.589578,0.450948,-0.015545,0.152796,0.104176,0.167897,0.106672,0.149678,0.117865,0.162969,0.124498,0.160902,0.118720,0.149541,0.115642,0.154883,0.113850,0.148328,0.127000,0.144110,0.124816,0.143471,0.120725,0.141216,0.109184,0.121616,0.108549,0.113954,0.091025,0.082160,0.064045,0.047871,0.024978,0.009602,0.010760,0.010214,0.038053,0.048939,0.100429,0.116675,0.168208,0.176474,0.189370,0.193658,0.200662,0.193028,0.205540,0.211630,0.206857,0.205203,0.204597,0.206970,0.205384,0.208678,0.195058,0.202462,0.187884,0.198758,0.192891,0.203375,0.174658,0.199375,0.179956,0.201207,0.180059,0.205258,0.180105,0.205500,0.179361,0.196810,0.182307,0.203493,0.186987,0.208128,0.181311,0.196471,0.193139,0.194103,0.187027,0.209574,0.207558,0.225455,0.231506,0.236506,0.231879,0.237727,0.252035,0.238687,0.227691,0.219893,0.215684,0.208545,0.207200,0.196501,0.194931,0.201116,0.191834,0.203950,0.196313,0.206350,0.157146,0.119025,0.064693,0.350554,0.636087,0.994885,0.705115,0.134577,0.173252,0.172000,0.163763,0.172385,0.153567,0.179662,0.147371,0.187037,0.130395,0.200693,0.096327,0.000000,0.000000,0.000000,0.000000,0.000000,0.000000,0.000000,0.000000,0.000000,0.000000,0.000000,0.000000,0.000000,0.000000,0.000000,0.000000,0.000000,0.000000,0.000000,0.000000,0.000000,0.000000,0.000000,0.000000,0.000000,0.000000,0.000000,0.000000,0.000000,0.000000,0.000000,0.000000,0.000000,0.000000,0.000000,0.000000,0.000000,0.000000,0.000000,0.000000,0.000000,0.000000,0.000000,0.000000,0.000000,0.000000,0.000000,0.000000,0.000000,0.000000,0.000000,0.000000,0.000000,0.000000,0.000000,0.000000,0.000000,0.000000,0.000000,0.000000,0.000000,0.000000,0.000000,0.000000,0.000000,0.000000,0.000000,0.000000,0.000000
0.755738,0.684525,0.057898,0.206374,0.125057,0.182561,0.131666,0.169925,0.139888,0.165002,0.142911,0.155590,0.141293,0.159977,0.163060,0.159289,0.151025,0.165154,0.155577,0.155856,0.155000,0.156262,0.143381,0.147584,0.123014,0.134297,0.118369,0.116223,0.088790,0.087955,0.047849,0.064526,0.023034,0.040454,0.017725,0.037340,0.035542,0.102029,0.103064,0.178219,0.173132,0.211690,0.204005,0.244869,0.216253,0.238562,0.221942,0.235422,0.213827,0.231635,0.230391,0.229647,0.224575,0.215631,0.211829,0.215351,0.206333,0.189564,0.207396,0.192248,0.194871,0.193183,0.195237,0.183014,0.190288,0.179152,0.183623,0.182244,0.182354,0.179889,0.186137,0.182568,0.175893,0.188173,0.186271,0.192235,0.173995,0.196145,0.175038,0.193221,0.175778,0.202515,0.181599,0.226139,0.198389,0.239094,0.227841,0.242455,0.225812,0.240696,0.192646,0.213958,0.177741,0.196000,0.167147,0.191188,0.157329,0.183836,0.164347,0.178327,0.152740,0.107423,0.060536,0.019630,0.077590,0.403518,0.641115,0.976928,0.619127,0.084021,0.158423,0.134710,0.139519,0.137298,0.135711,0.137640,0.127379,0.154876,0.103404,0.186459,0.054944,0.000000,0.000000,0.000000,0.000000,0.000000,0.000000,0.000000,0.000000,0.000000,0.000000,0.000000,0.000000,0.000000,0.000000,0.000000,0.000000,0.000000,0.000000,0.000000,0.000000,0.000000,0.000000,0.000000,0.000000,0.000000,0.000000,0.000000,0.000000,0.000000,0.000000,0.000000,0.000000,0.000000,0.000000,0.000000,0.000000,0.000000,0.000000,0.000000,0.000000,0.000000,0.000000,0.000000,0.000000,0.000000,0.000000,0.000000,0.000000,0.000000,0.000000,0.000000,0.000000,0.000000,0.000000,0.000000,0.000000,0.000000,0.000000,0.000000,0.000000,0.000000,0.000000,0.000000,0.000000,0.000000,0.000000,0.000000
0.742800,0.644848,0.023945,0.205195,0.098574,0.173317,0.107509,0.167654,0.105500,0.165611,0.113647,0.154310,0.123932,0.158549,0.130190,0.158871,0.132341,0.157108,0.138178,0.145586,0.142820,0.136978,0.129454,0.129503,0.127536,0.114290,0.108115,0.094339,0.090079,0.058534,0.064568,0.036247,0.024402,0.006385,0.014862,0.003400,0.034485,0.044386,0.100215,0.129903,0.166699,0.189958,0.199397,0.203381,0.215511,0.211007,0.214973,0.219381,0.200939,0.213383,0.194075,0.198301,0.187398,0.197810,0.169051,0.196139,0.176952,0.182770,0.168464,0.179906,0.148240,0.167231,0.157605,0.167096,0.155889,0.154944,0.148804,0.166772,0.167039,0.160998,0.145517,0.145146,0.165477,0.165314,0.161375,0.145877,0.155103,0.142827,0.177451,0.165941,0.187624,0.178801,0.209766,0.182884,0.209724,0.169665,0.180653,0.138425,0.181153,0.127349,0.156398,0.114563,0.146864,0.118925,0.149272,0.102536,0.144868,0.088202,0.066530,0.004373,0.228579,0.412354,0.733582,0.549183,0.018467,0.061948,0.073269,0.090710,0.087054,0.079745,0.103945,0.067580,0.095992,0.059388,0.137947,0.001231,0.000000,0.000000,0.000000,0.000000,0.000000,0.000000,0.000000,0.000000,0.000000,0.000000,0.000000,0.000000,0.000000,0.000000,0.000000,0.000000,0.000000,0.000000,0.000000,0.000000,0.000000,0.000000,0.000000,0.000000,0.000000,0.000000,0.000000,0.000000,0.000000,0.000000,0.000000,0.000000,0.000000,0.000000,0.000000,0.000000,0.000000,0.000000,0.000000,0.000000,0.000000,0.000000,0.000000,0.000000,0.000000,0.000000,0.000000,0.000000,0.000000,0.000000,0.000000,0.000000,0.000000,0.000000,0.000000,0.000000,0.000000,0.000000,0.000000,0.000000,0.000000,0.000000,0.000000,0.000000,0.000000,0.000000,0.000000,0.000000,0.000000,0.000000,0.000000,0.000000
0.745759,0.661325,0.021569,0.181537,0.118123,0.202341,0.132892,0.191758,0.149784,0.180491,0.131183,0.191304,0.148134,0.190750,0.150581,0.200153,0.160441,0.176412,0.153606,0.180550,0.146174,0.175066,0.160308,0.167430,0.161715,0.161390,0.147333,0.149011,0.130687,0.114531,0.104048,0.058416,0.056468,0.028990,0.035065,0.017619,0.022521,0.015496,0.077221,0.100535,0.128446,0.161509,0.212478,0.181578,0.204715,0.212619,0.207426,0.197804,0.209093,0.207812,0.203129,0.202535,0.181788,0.201569,0.178626,0.197524,0.178145,0.172380,0.152580,0.170077,0.149343,0.164829,0.146192,0.160021,0.140366,0.160129,0.134374,0.154203,0.153059,0.145581,0.153242,0.143766,0.141539,0.150371,0.153332,0.131310,0.165487,0.138939,0.158339,0.139714,0.186209,0.161834,0.202550,0.173343,0.218156,0.192146,0.210840,0.168097,0.198127,0.149066,0.156183,0.138568,0.153244,0.141989,0.173501,0.150394,0.166150,0.151119,0.169403,0.109851,0.062523,0.047477,0.364860,0.606040,0.989489,0.665031,0.006739,0.116664,0.130497,0.156289,0.153728,0.154075,0.151622,0.146745,0.173345,0.128589,0.213312,0.070441,0.000000,0.000000,0.000000,0.000000,0.000000,0.000000,0.000000,0.000000,0.000000,0.000000,0.000000,0.000000,0.000000,0.000000,0.000000,0.000000,0.000000,0.000000,0.000000,0.000000,0.000000,0.000000,0.000000,0.000000,0.000000,0.000000,0.000000,0.000000,0.000000,0.000000,0.000000,0.000000,0.000000,0.000000,0.000000,0.000000,0.000000,0.000000,0.000000,0.000000,0.000000,0.000000,0.000000,0.000000,0.000000,0.000000,0.000000,0.000000,0.000000,0.000000,0.000000,0.000000,0.000000,0.000000,0.000000,0.000000,0.000000,0.000000,0.000000,0.000000,0.000000,0.000000,0.000000,0.000000,0.000000,0.000000,0.000000,0.000000,0.000000,0.000000
0.592887,0.521689,-0.035540,0.131262,0.077613,0.151192,0.097674,0.148200,0.094289,0.147264,0.104316,0.143613,0.117258,0.138090,0.117295,0.142716,0.122303,0.138870,0.125997,0.137507,0.133452,0.121261,0.119464,0.126050,0.119324,0.108674,0.110482,0.094332,0.097476,0.081026,0.072837,0.051559,0.041646,0.027693,0.011605,0.013815,0.007921,0.041274,0.074778,0.106691,0.126464,0.166589,0.165014,0.198756,0.189467,0.208461,0.195672,0.212126,0.188445,0.216546,0.179440,0.203420,0.176405,0.197296,0.182145,0.198688,0.167649,0.197433,0.169576,0.187234,0.170532,0.185802,0.170685,0.182905,0.173115,0.175184,0.179803,0.177372,0.177542,0.175177,0.181654,0.179748,0.183456,0.177467,0.189753,0.181850,0.184471,0.188868,0.192365,0.192433,0.212190,0.215759,0.225161,0.240879,0.234868,0.247813,0.224564,0.225335,0.205849,0.218895,0.188112,0.207547,0.188039,0.213880,0.177979,0.217635,0.171467,0.209363,0.154270,0.124925,0.079576,0.388150,0.659677,1.014494,0.610935,0.151189,0.189077,0.162666,0.162756,0.158771,0.147008,0.158802,0.144310,0.168779,0.138923,0.192510,0.097784,0.000000,0.000000,0.000000,0.000000,0.000000,0.000000,0.000000,0.000000,0.000000,0.000000,0.000000,0.000000,0.000000,0.000000,0.000000,0.000000,0.000000,0.000000,0.000000,0.000000,0.000000,0.000000,0.000000,0.000000,0.000000,0.000000,0.000000,0.000000,0.000000,0.000000,0.000000,0.000000,0.000000,0.000000,0.000000,0.000000,0.000000,0.000000,0.000000,0.000000,0.000000,0.000000,0.000000,0.000000,0.000000,0.000000,0.000000,0.000000,0.000000,0.000000,0.000000,0.000000,0.000000,0.000000,0.000000,0.000000,0.000000,0.000000,0.000000,0.000000,0.000000,0.000000,0.000000,0.000000,0.000000,0.000000,0.000000,0.000000,0.000000,0.000000,0.000000
0.762872,0.610888,0.070888,0.193695,0.101903,0.157949,0.102360,0.139957,0.103150,0.139774,0.108579,0.143724,0.115320,0.139950,0.109309,0.149038,0.110572,0.152637,0.109094,0.146806,0.114205,0.134654,0.105566,0.129430,0.085316,0.110768,0.071267,0.086865,0.038145,0.060486,0.017451,0.032282,-0.000228,0.017448,0.014332,0.044944,0.070167,0.121605,0.142345,0.181642,0.189436,0.191911,0.196555,0.207096,0.202988,0.201765,0.204271,0.193401,0.202788,0.189615,0.194909,0.184105,0.190983,0.183531,0.189707,0.183176,0.172802,0.173694,0.170820,0.179191,0.166995,0.174478,0.162737,0.169765,0.160480,0.174932,0.157844,0.192083,0.161136,0.186575,0.170037,0.193277,0.165759,0.196561,0.165188,0.204974,0.178090,0.214145,0.194939,0.236035,0.202104,0.248781,0.225305,0.246668,0.204254,0.225731,0.189545,0.203565,0.181040,0.190300,0.175269,0.197001,0.177015,0.202092,0.147995,0.105012,0.048262,0.304878,0.569217,0.920572,0.603797,0.091093,0.169677,0.148018,0.161594,0.153413,0.151307,0.153303,0.141041,0.162054,0.123245,0.201150,0.057784,0.000000,0.000000,0.000000,0.000000,0.000000,0.000000,0.000000,0.000000,0.000000,0.000000,0.000000,0.000000,0.000000,0.000000,0.000000,0.000000,0.000000,0.000000,0.000000,0.000000,0.000000,0.000000,0.000000,0.000000,0.000000,0.000000,0.000000,0.000000,0.000000,0.000000,0.000000,0.000000,0.000000,0.000000,0.000000,0.000000,0.000000,0.000000,0.000000,0.000000,0.000000,0.000000,0.000000,0.000000,0.000000,0.000000,0.000000,0.000000,0.000000,0.000000,0.000000,0.000000,0.000000,0.000000,0.000000,0.000000,0.000000,0.000000,0.000000,0.000000,0.000000,0.000000,0.000000,0.000000,0.000000,0.000000,0.000000,0.000000,0.000000,0.000000,0.000000,0.000000,0.000000,0.000000,0.000000
0.754007,0.639088,0.089090,0.261729,0.167224,0.242651,0.175928,0.231779,0.173116,0.227433,0.172385,0.225341,0.186485,0.212258,0.198447,0.217069,0.207162,0.226352,0.212078,0.214158,0.204661,0.198494,0.195323,0.181273,0.180293,0.166856,0.159158,0.147120,0.150416,0.113844,0.118175,0.091179,0.097493,0.084192,0.087745,0.075269,0.090266,0.110192,0.137745,0.161702,0.187064,0.206088,0.222123,0.240664,0.221427,0.227569,0.219772,0.229186,0.208352,0.220225,0.200845,0.223578,0.195613,0.211460,0.205844,0.216186,0.185773,0.205580,0.184441,0.187724,0.185477,0.186577,0.181895,0.185733,0.179875,0.181166,0.180682,0.177870,0.193327,0.176222,0.184134,0.171922,0.191350,0.172214,0.194067,0.167810,0.192792,0.183331,0.219544,0.185202,0.224612,0.210177,0.245277,0.196823,0.211141,0.184234,0.187075,0.176853,0.174023,0.163898,0.181473,0.158653,0.178408,0.165183,0.137428,0.063425,0.083552,0.294820,0.459704,0.667268,0.951573,0.588272,0.027749,0.081001,0.117359,0.123268,0.124350,0.111081,0.132469,0.099841,0.141357,0.082007,0.173429,0.024048,0.000000,0.000000,0.000000,0.000000,0.000000,0.000000,0.000000,0.000000,0.000000,0.000000,0.000000,0.000000,0.000000,0.000000,0.000000,0.000000,0.000000,0.000000,0.000000,0.000000,0.000000,0.000000,0.000000,0.000000,0.000000,0.000000,0.000000,0.000000,0.000000,0.000000,0.000000,0.000000,0.000000,0.000000,0.000000,0.000000,0.000000,0.000000,0.000000,0.000000,0.000000,0.000000,0.000000,0.000000,0.000000,0.000000,0.000000,0.000000,0.000000,0.000000,0.000000,0.000000,0.000000,0.000000,0.000000,0.000000,0.000000,0.000000,0.000000,0.000000,0.000000,0.000000,0.000000,0.000000,0.000000,0.000000,0.000000,0.000000,0.000000,0.000000,0.000000,0.000000,0.000000,0.000000
0.758254,0.667025,0.003671,0.181789,0.127077,0.209273,0.136880,0.196096,0.143806,0.188515,0.145193,0.183989,0.153321,0.180917,0.162061,0.185146,0.154131,0.171654,0.161897,0.155401,0.161152,0.171918,0.143954,0.147099,0.140500,0.119428,0.132057,0.124440,0.121631,0.082986,0.067004,0.049354,0.036577,0.018812,0.014484,0.020829,0.050040,0.082510,0.108044,0.144649,0.156737,0.191360,0.186975,0.205926,0.191262,0.211629,0.177733,0.206685,0.176639,0.210704,0.178518,0.191438,0.170519,0.186026,0.164650,0.183885,0.167795,0.175722,0.163027,0.182898,0.166313,0.165950,0.164105,0.159792,0.157508,0.172962,0.164857,0.168982,0.182792,0.173421,0.180650,0.177339,0.185766,0.179460,0.184791,0.188179,0.199580,0.218949,0.235879,0.231668,0.245649,0.251714,0.235111,0.230186,0.214232,0.220647,0.193641,0.225068,0.186300,0.221117,0.187367,0.222013,0.183547,0.231358,0.162352,0.150999,0.060786,0.383518,0.617490,1.010472,0.552966,0.073129,0.174097,0.173528,0.170644,0.165113,0.164890,0.182855,0.162058,0.200455,0.156232,0.225006,0.114642,0.000000,0.000000,0.000000,0.000000,0.000000,0.000000,0.000000,0.000000,0.000000,0.000000,0.000000,0.000000,0.000000,0.000000,0.000000,0.000000,0.000000,0.000000,0.000000,0.000000,0.000000,0.000000,0.000000,0.000000,0.000000,0.000000,0.000000,0.000000,0.000000,0.000000,0.000000,0.000000,0.000000,0.000000,0.000000,0.000000,0.000000,0.000000,0.000000,0.000000,0.000000,0.000000,0.000000,0.000000,0.000000,0.000000,0.000000,0.000000,0.000000,0.000000,0.000000,0.000000,0.000000,0.000000,0.000000,0.000000,0.000000,0.000000,0.000000,0.000000,0.000000,0.000000,0.000000,0.000000,0.000000,0.000000,0.000000,0.000000,0.000000,0.000000,0.000000,0.000000,0.000000,0.000000,0.000000
0.636544,0.463518,-0.004606,0.150458,0.092703,0.138780,0.088577,0.134251,0.102447,0.134584,0.112409,0.138568,0.115781,0.144282,0.117184,0.142327,0.116846,0.145902,0.115107,0.145444,0.109544,0.142899,0.103844,0.125949,0.095295,0.107475,0.082804,0.101154,0.070832,0.061286,0.039014,0.034729,0.004062,0.014510,0.007756,0.023620,0.050984,0.084618,0.115814,0.144995,0.164201,0.175245,0.191862,0.176330,0.186964,0.180828,0.181216,0.175669,0.181646,0.177286,0.181191,0.179805,0.173824,0.176475,0.170301,0.165875,0.163819,0.165948,0.149158,0.170748,0.149781,0.166825,0.157308,0.183649,0.153691,0.176186,0.164399,0.181180,0.158841,0.187649,0.160016,0.195437,0.170743,0.188821,0.180433,0.187454,0.170830,0.195291,0.188898,0.215718,0.213484,0.219252,0.234298,0.247936,0.239460,0.241505,0.227573,0.217834,0.218104,0.212472,0.206368,0.200888,0.199609,0.202524,0.200743,0.201993,0.194121,0.194544,0.150649,0.092141,0.112059,0.440502,0.677665,1.019821,0.634647,0.153140,0.169520,0.177569,0.165264,0.175999,0.147632,0.174769,0.138902,0.185137,0.128380,0.211493,0.085000,0.000000,0.000000,0.000000,0.000000,0.000000,0.000000,0.000000,0.000000,0.000000,0.000000,0.000000,0.000000,0.000000,0.000000,0.000000,0.000000,0.000000,0.000000,0.000000,0.000000,0.000000,0.000000,0.000000,0.000000,0.000000,0.000000,0.000000,0.000000,0.000000,0.000000,0.000000,0.000000,0.000000,0.000000,0.000000,0.000000,0.000000,0.000000,0.000000,0.000000,0.000000,0.000000,0.000000,0.000000,0.000000,0.000000,0.000000,0.000000,0.000000,0.000000,0.000000,0.000000,0.000000,0.000000,0.000000,0.000000,0.000000,0.000000,0.000000,0.000000,0.000000,0.000000,0.000000,0.000000,0.000000,0.000000,0.000000,0.000000,0.000000,0.000000,0.000000
0.764170,0.649008,0.082185,0.195240,0.131475,0.179593,0.133984,0.159786,0.133142,0.153794,0.138668,0.152847,0.147658,0.148519,0.148258,0.153269,0.152080,0.150503,0.146853,0.146334,0.151965,0.146176,0.141913,0.140570,0.125779,0.121197,0.118956,0.121452,0.097937,0.095974,0.073668,0.067951,0.048958,0.040755,0.007165,0.019124,0.000066,0.022998,0.029702,0.072680,0.087531,0.139340,0.142063,0.172638,0.171603,0.194694,0.180920,0.190318,0.184323,0.187565,0.182843,0.187461,0.177948,0.176287,0.187890,0.175805,0.177772,0.174224,0.174228,0.170700,0.177304,0.160850,0.176919,0.165457,0.176353,0.149951,0.169478,0.160825,0.172492,0.158232,0.179346,0.159280,0.183665,0.167861,0.180437,0.169408,0.186129,0.170398,0.187101,0.183218,0.191465,0.181250,0.190064,0.194469,0.194083,0.215685,0.220612,0.225688,0.238546,0.244381,0.235343,0.224953,0.214155,0.210863,0.204682,0.204521,0.199309,0.197776,0.192677,0.184421,0.193648,0.196334,0.193852,0.149403,0.110274,0.071982,0.346909,0.557795,0.874998,0.712657,0.169620,0.147470,0.188215,0.159829,0.182808,0.145302,0.187300,0.140472,0.198978,0.127946,0.223615,0.077889,0.000000,0.000000,0.000000,0.000000,0.000000,0.000000,0.000000,0.000000,0.000000,0.000000,0.000000,0.000000,0.000000,0.000000,0.000000,0.000000,0.000000,0.000000,0.000000,0.000000,0.000000,0.000000,0.000000,0.000000,0.000000,0.000000,0.000000,0.000000,0.000000,0.000000,0.000000,0.000000,0.000000,0.000000,0.000000,0.000000,0.000000,0.000000,0.000000,0.000000,0.000000,0.000000,0.000000,0.000000,0.000000,0.000000,0.000000,0.000000,0.000000,0.000000,0.000000,0.000000,0.000000,0.000000,0.000000,0.000000,0.000000,0.000000,0.000000,0.000000,0.000000,0.000000,0.000000,0.000000,0.000000,0.000000
0.730767,0.777776,0.097848,0.220878,0.163802,0.214843,0.163521,0.196970,0.169443,0.194432,0.176030,0.192278,0.180321,0.191258,0.189634,0.192102,0.191874,0.192253,0.190873,0.188383,0.181708,0.184519,0.180405,0.172528,0.163731,0.163241,0.143151,0.149866,0.121155,0.124826,0.082726,0.094251,0.052354,0.068803,0.028736,0.061018,0.038502,0.090515,0.083183,0.150552,0.148569,0.188340,0.175582,0.220523,0.192598,0.206127,0.197233,0.217189,0.185541,0.203917,0.188759,0.197823,0.191416,0.189304,0.184828,0.184932,0.176443,0.176444,0.173730,0.158166,0.167237,0.158625,0.162748,0.166959,0.171897,0.154520,0.173488,0.175502,0.170500,0.158870,0.168151,0.172235,0.162947,0.168982,0.166763,0.161829,0.148836,0.168812,0.155741,0.192887,0.190878,0.205944,0.202429,0.222354,0.185591,0.225433,0.168216,0.197418,0.157592,0.179536,0.147714,0.188508,0.127053,0.168813,0.142137,0.175962,0.149415,0.182449,0.084774,0.074989,0.026086,0.308880,0.456182,0.816032,0.500129,0.000261,0.115177,0.106145,0.122286,0.138641,0.117552,0.130001,0.120954,0.144676,0.124799,0.188471,0.060909,0.000000,0.000000,0.000000,0.000000,0.000000,0.000000,0.000000,0.000000,0.000000,0.000000,0.000000,0.000000,0.000000,0.000000,0.000000,0.000000,0.000000,0.000000,0.000000,0.000000,0.000000,0.000000,0.000000,0.000000,0.000000,0.000000,0.000000,0.000000,0.000000,0.000000,0.000000,0.000000,0.000000,0.000000,0.000000,0.000000,0.000000,0.000000,0.000000,0.000000,0.000000,0.000000,0.000000,0.000000,0.000000,0.000000,0.000000,0.000000,0.000000,0.000000,0.000000,0.000000,0.000000,0.000000,0.000000,0.000000,0.000000,0.000000,0.000000,0.000000,0.000000,0.000000,0.000000,0.000000,0.000000,0.000000,0.000000,0.000000,0.000000,0.000000,0.000000
0.659530,0.479203,-0.010135,0.173005,0.101481,0.171365,0.135520,0.162739,0.127313,0.170946,0.133998,0.188334,0.152144,0.174747,0.142529,0.167448,0.135662,0.166309,0.139067,0.174563,0.143630,0.152133,0.135404,0.149690,0.127498,0.130341,0.119971,0.112413,0.093681,0.076563,0.052145,0.038789,0.023695,0.009824,0.029379,0.029877,0.072186,0.105892,0.137526,0.156745,0.184147,0.180302,0.195627,0.196351,0.200328,0.200675,0.192186,0.200159,0.198284,0.199420,0.192726,0.203833,0.190296,0.189717,0.173554,0.191485,0.169019,0.188147,0.170868,0.185909,0.174630,0.189232,0.185182,0.202742,0.192877,0.205316,0.191003,0.207662,0.201672,0.204229,0.207511,0.203861,0.205777,0.221357,0.229557,0.232395,0.264085,0.244947,0.280439,0.265156,0.277417,0.247814,0.261189,0.233353,0.256815,0.224866,0.242593,0.214757,0.252769,0.216306,0.247864,0.213223,0.251526,0.201503,0.184959,0.089602,0.355191,0.589407,0.944786,0.722257,0.129219,0.201003,0.206932,0.212800,0.210963,0.216034,0.212923,0.213003,0.233203,0.193993,0.257897,0.162022,0.000000,0.000000,0.000000,0.000000,0.000000,0.000000,0.000000,0.000000,0.000000,0.000000,0.000000,0.000000,0.000000,0.000000,0.000000,0.000000,0.000000,0.000000,0.000000,0.000000,0.000000,0.000000,0.000000,0.000000,0.000000,0.000000,0.000000,0.000000,0.000000,0.000000,0.000000,0.000000,0.000000,0.000000,0.000000,0.000000,0.000000,0.000000,0.000000,0.000000,0.000000,0.000000,0.000000,0.000000,0.000000,0.000000,0.000000,0.000000,0.000000,0.000000,0.000000,0.000000,0.000000,0.000000,0.000000,0.000000,0.000000,0.000000,0.000000,0.000000,0.000000,0.000000,0.000000,0.000000,0.000000,0.000000,0.000000,0.000000,0.000000,0.000000,0.000000,0.000000,0.000000,0.000000,0.000000,0.000000
0.635281,0.596502,0.005523,0.155073,0.097367,0.154746,0.104632,0.157185,0.104268,0.159096,0.116269,0.150889,0.122725,0.159049,0.120319,0.167781,0.135400,0.159751,0.132382,0.160649,0.135654,0.151939,0.139771,0.142293,0.120966,0.126379,0.108193,0.103101,0.086450,0.068191,0.058396,0.031828,0.029562,0.010414,0.020321,0.030694,0.071364,0.098475,0.144612,0.156280,0.187176,0.189502,0.199630,0.197303,0.199736,0.195580,0.201928,0.206376,0.190182,0.192965,0.189095,0.196378,0.175398,0.189848,0.167838,0.187700,0.165256,0.181187,0.161974,0.172728,0.161404,0.174799,0.154631,0.180463,0.173699,0.179999,0.177864,0.174242,0.184259,0.180326,0.179023,0.183038,0.189901,0.167493,0.185943,0.174342,0.202469,0.185940,0.229027,0.196821,0.236799,0.220935,0.238430,0.210249,0.217936,0.188566,0.205831,0.169526,0.194566,0.168446,0.187751,0.174762,0.189964,0.157587,0.143191,0.031972,0.156814,0.416455,0.592719,0.732848,0.991246,0.671179,0.117134,0.178563,0.136841,0.144771,0.128466,0.135755,0.133922,0.125309,0.142607,0.105586,0.178428,0.054549,0.000000,0.000000,0.000000,0.000000,0.000000,0.000000,0.000000,0.000000,0.000000,0.000000,0.000000,0.000000,0.000000,0.000000,0.000000,0.000000,0.000000,0.000000,0.000000,0.000000,0.000000,0.000000,0.000000,0.000000,0.000000,0.000000,0.000000,0.000000,0.000000,0.000000,0.000000,0.000000,0.000000,0.000000,0.000000,0.000000,0.000000,0.000000,0.000000,0.000000,0.000000,0.000000,0.000000,0.000000,0.000000,0.000000,0.000000,0.000000,0.000000,0.000000,0.000000,0.000000,0.000000,0.000000,0.000000,0.000000,0.000000,0.000000,0.000000,0.000000,0.000000,0.000000,0.000000,0.000000,0.000000,0.000000,0.000000,0.000000,0.000000,0.000000,0.000000,0.000000,0.000000,0.000000
0.738397,0.700409,0.073212,0.221398,0.112697,0.178468,0.109427,0.169217,0.113037,0.163010,0.114172,0.156094,0.129610,0.149181,0.123534,0.150715,0.131866,0.142856,0.130053,0.138169,0.124633,0.136334,0.112609,0.113190,0.100432,0.087856,0.084725,0.056497,0.053980,0.028573,0.016018,0.003798,0.006031,0.002349,0.036700,0.051954,0.097559,0.123479,0.140920,0.141052,0.165762,0.176568,0.180175,0.184636,0.179507,0.179209,0.175240,0.175633,0.171926,0.177549,0.169398,0.178806,0.151829,0.172169,0.145490,0.160574,0.153000,0.158461,0.147982,0.167366,0.145791,0.169475,0.155994,0.159659,0.166145,0.169204,0.176549,0.173372,0.176086,0.173506,0.173183,0.169533,0.186658,0.182128,0.214090,0.192744,0.213023,0.190631,0.234408,0.205953,0.229501,0.194742,0.211142,0.168379,0.187094,0.153997,0.185724,0.159056,0.176593,0.147682,0.177052,0.120310,0.095431,0.008753,0.243376,0.428660,0.747830,0.533400,0.059775,0.128133,0.116419,0.121798,0.122920,0.105474,0.120029,0.093100,0.140442,0.094036,0.154898,0.032487,0.000000,0.000000,0.000000,0.000000,0.000000,0.000000,0.000000,0.000000,0.000000,0.000000,0.000000,0.000000,0.000000,0.000000,0.000000,0.000000,0.000000,0.000000,0.000000,0.000000,0.000000,0.000000,0.000000,0.000000,0.000000,0.000000,0.000000,0.000000,0.000000,0.000000,0.000000,0.000000,0.000000,0.000000,0.000000,0.000000,0.000000,0.000000,0.000000,0.000000,0.000000,0.000000,0.000000,0.000000,0.000000,0.000000,0.000000,0.000000,0.000000,0.000000,0.000000,0.000000,0.000000,0.000000,0.000000,0.000000,0.000000,0.000000,0.000000,0.000000,0.000000,0.000000,0.000000,0.000000,0.000000,0.000000,0.000000,0.000000,0.000000,0.000000,0.000000,0.000000,0.000000,0.000000,0.000000,0.000000,0.000000,0.000000
0.733022,0.669306,0.047806,0.240517,0.138739,0.220737,0.149718,0.199447,0.144373,0.191139,0.162609,0.205829,0.147394,0.202633,0.158138,0.196738,0.158106,0.186170,0.165103,0.194879,0.164347,0.188417,0.163462,0.177497,0.140458,0.162792,0.125928,0.133135,0.117534,0.092934,0.081920,0.066816,0.046621,0.031178,0.027720,0.015281,0.059956,0.073622,0.140858,0.153101,0.180055,0.184459,0.208967,0.202187,0.209677,0.208490,0.216644,0.207729,0.215590,0.197156,0.216267,0.193395,0.193032,0.193428,0.176866,0.178696,0.181997,0.184579,0.166026,0.182429,0.163648,0.177691,0.159773,0.178079,0.163124,0.174559,0.171761,0.190581,0.158888,0.177363,0.171339,0.177957,0.173759,0.178524,0.184530,0.204671,0.190466,0.199688,0.235222,0.227616,0.230012,0.205830,0.198607,0.166506,0.189072,0.143708,0.183456,0.156640,0.177309,0.142827,0.193590,0.148615,0.181758,0.113405,0.109451,0.004068,0.261218,0.425529,0.815553,0.645145,0.001716,0.081983,0.114285,0.105865,0.132392,0.114060,0.143297,0.122277,0.157521,0.104695,0.181466,0.050427,0.000000,0.000000,0.000000,0.000000,0.000000,0.000000,0.000000,0.000000,0.000000,0.000000,0.000000,0.000000,0.000000,0.000000,0.000000,0.000000,0.000000,0.000000,0.000000,0.000000,0.000000,0.000000,0.000000,0.000000,0.000000,0.000000,0.000000,0.000000,0.000000,0.000000,0.000000,0.000000,0.000000,0.000000,0.000000,0.000000,0.000000,0.000000,0.000000,0.000000,0.000000,0.000000,0.000000,0.000000,0.000000,0.000000,0.000000,0.000000,0.000000,0.000000,0.000000,0.000000,0.000000,0.000000,0.000000,0.000000,0.000000,0.000000,0.000000,0.000000,0.000000,0.000000,0.000000,0.000000,0.000000,0.000000,0.000000,0.000000,0.000000,0.000000,0.000000,0.000000,0.000000,0.000000,0.000000,0.000000
0.569734,0.495986,-0.036861,0.112672,0.075001,0.118479,0.093665,0.123601,0.101320,0.134120,0.105259,0.130683,0.105373,0.130227,0.107714,0.134732,0.098986,0.140983,0.114807,0.139855,0.096773,0.135010,0.115820,0.126909,0.103474,0.128848,0.097449,0.107367,0.080849,0.087046,0.061358,0.054226,0.028341,0.025324,0.010767,0.009959,0.025777,0.042393,0.084981,0.102214,0.136744,0.156356,0.179816,0.172361,0.198497,0.192344,0.212473,0.190364,0.203736,0.195081,0.196896,0.202303,0.203727,0.200865,0.201099,0.193729,0.190367,0.193398,0.181770,0.193613,0.176949,0.186509,0.178375,0.188359,0.171414,0.192974,0.183862,0.195366,0.184708,0.199315,0.184856,0.198023,0.189845,0.202816,0.196272,0.194939,0.195770,0.195329,0.202477,0.214063,0.235829,0.222482,0.231775,0.244151,0.254906,0.241740,0.247274,0.214127,0.228042,0.201669,0.218070,0.198109,0.217458,0.188492,0.223250,0.198720,0.203842,0.120661,0.080820,0.214237,0.486095,0.613935,0.946072,0.788230,0.189235,0.188043,0.184073,0.179458,0.175398,0.175178,0.178320,0.164800,0.191167,0.155513,0.208412,0.112014,0.000000,0.000000,0.000000,0.000000,0.000000,0.000000,0.000000,0.000000,0.000000,0.000000,0.000000,0.000000,0.000000,0.000000,0.000000,0.000000,0.000000,0.000000,0.000000,0.000000,0.000000,0.000000,0.000000,0.000000,0.000000,0.000000,0.000000,0.000000,0.000000,0.000000,0.000000,0.000000,0.000000,0.000000,0.000000,0.000000,0.000000,0.000000,0.000000,0.000000,0.000000,0.000000,0.000000,0.000000,0.000000,0.000000,0.000000,0.000000,0.000000,0.000000,0.000000,0.000000,0.000000,0.000000,0.000000,0.000000,0.000000,0.000000,0.000000,0.000000,0.000000,0.000000,0.000000,0.000000,0.000000,0.000000,0.000000,0.000000,0.000000,0.000000,0.000000,0.000000
0.734198,0.800458,0.094303,0.192835,0.116908,0.172979,0.112746,0.167671,0.114449,0.160221,0.122661,0.159702,0.122814,0.154043,0.121813,0.164838,0.133255,0.153229,0.128075,0.155057,0.123075,0.145285,0.124544,0.137607,0.114902,0.120870,0.099406,0.095726,0.079961,0.061184,0.055890,0.032031,0.021978,0.008638,0.013023,0.011441,0.032371,0.048766,0.074577,0.093943,0.138831,0.155867,0.180133,0.188420,0.189179,0.200421,0.188328,0.190275,0.193244,0.199522,0.182630,0.192770,0.179585,0.186581,0.169658,0.189714,0.166010,0.178740,0.164765,0.181744,0.150150,0.167925,0.148773,0.168484,0.158096,0.159628,0.154286,0.162707,0.161273,0.169790,0.170898,0.169553,0.182150,0.171089,0.177561,0.173359,0.181707,0.158287,0.186349,0.180189,0.207250,0.196724,0.217194,0.211478,0.242178,0.210672,0.219076,0.199074,0.204899,0.180803,0.190237,0.171910,0.185628,0.166545,0.193648,0.168680,0.183881,0.150113,0.111519,0.034375,0.255388,0.529585,0.870263,0.729058,0.123389,0.154010,0.135785,0.149798,0.130861,0.139255,0.148702,0.127579,0.159458,0.112335,0.181952,0.060311,0.000000,0.000000,0.000000,0.000000,0.000000,0.000000,0.000000,0.000000,0.000000,0.000000,0.000000,0.000000,0.000000,0.000000,0.000000,0.000000,0.000000,0.000000,0.000000,0.000000,0.000000,0.000000,0.000000,0.000000,0.000000,0.000000,0.000000,0.000000,0.000000,0.000000,0.000000,0.000000,0.000000,0.000000,0.000000,0.000000,0.000000,0.000000,0.000000,0.000000,0.000000,0.000000,0.000000,0.000000,0.000000,0.000000,0.000000,0.000000,0.000000,0.000000,0.000000,0.000000,0.000000,0.000000,0.000000,0.000000,0.000000,0.000000,0.000000,0.000000,0.000000,0.000000,0.000000,0.000000,0.000000,0.000000,0.000000,0.000000,0.000000,0.000000,0.000000,0.000000
0.711944,0.790210,0.069336,0.198602,0.110690,0.183341,0.107972,0.174520,0.123872,0.166117,0.127894,0.162972,0.126934,0.166107,0.135226,0.155273,0.136441,0.162075,0.142784,0.161081,0.144425,0.145501,0.140919,0.133856,0.126312,0.127406,0.123935,0.100911,0.092375,0.077214,0.063814,0.050633,0.036939,0.019815,0.016890,0.007505,0.030057,0.059180,0.095609,0.125968,0.165308,0.175414,0.199675,0.199244,0.196477,0.205906,0.197347,0.202942,0.192841,0.208470,0.194166,0.191957,0.180223,0.192032,0.161271,0.189276,0.163719,0.178781,0.162462,0.184923,0.151887,0.176070,0.149863,0.178200,0.160030,0.174959,0.160547,0.183109,0.161022,0.173376,0.168447,0.183134,0.172593,0.175540,0.176291,0.176156,0.169323,0.164517,0.179679,0.191440,0.194594,0.200441,0.217138,0.213205,0.232460,0.217608,0.219902,0.196618,0.195663,0.188086,0.167979,0.162087,0.152558,0.154304,0.145307,0.159917,0.140339,0.161172,0.113413,0.084893,-0.008026,0.180590,0.385754,0.694718,0.659028,0.076825,0.060517,0.112901,0.083643,0.116620,0.078522,0.134496,0.080439,0.136165,0.057427,0.157463,0.002415,0.000000,0.000000,0.000000,0.000000,0.000000,0.000000,0.000000,0.000000,0.000000,0.000000,0.000000,0.000000,0.000000,0.000000,0.000000,0.000000,0.000000,0.000000,0.000000,0.000000,0.000000,0.000000,0.000000,0.000000,0.000000,0.000000,0.000000,0.000000,0.000000,0.000000,0.000000,0.000000,0.000000,0.000000,0.000000,0.000000,0.000000,0.000000,0.000000,0.000000,0.000000,0.000000,0.000000,0.000000,0.000000,0.000000,0.000000,0.000000,0.000000,0.000000,0.000000,0.000000,0.000000,0.000000,0.000000,0.000000,0.000000,0.000000,0.000000,0.000000,0.000000,0.000000,0.000000,0.000000,0.000000,0.000000,0.000000,0.000000,0.000000,0.000000,0.000000
0.726949,0.820155,0.064606,0.204499,0.160462,0.208069,0.171747,0.199772,0.194517,0.202481,0.188478,0.189187,0.188150,0.186665,0.189464,0.202834,0.196081,0.189300,0.197603,0.182573,0.178846,0.197697,0.177080,0.193448,0.175285,0.184684,0.170556,0.182536,0.152665,0.150034,0.119304,0.128994,0.082739,0.095021,0.044906,0.052508,0.036022,0.057753,0.031212,0.084168,0.085745,0.147371,0.172018,0.199812,0.187869,0.213412,0.221146,0.215745,0.216115,0.224342,0.223092,0.215203,0.218799,0.196911,0.214120,0.201233,0.197501,0.176659,0.196805,0.162280,0.204989,0.181880,0.199595,0.177504,0.197178,0.175894,0.196396,0.177116,0.192536,0.174423,0.201018,0.188661,0.184285,0.183363,0.185895,0.190519,0.191425,0.194535,0.186602,0.198380,0.204652,0.203947,0.204111,0.225434,0.214847,0.232965,0.251871,0.241699,0.246905,0.223497,0.197070,0.203249,0.190637,0.180966,0.194583,0.176354,0.189034,0.172987,0.196635,0.164215,0.202965,0.141995,0.099354,0.064871,0.395091,0.563280,0.985220,0.597172,-0.013742,0.095250,0.163735,0.152095,0.159362,0.147632,0.172669,0.135892,0.185661,0.134740,0.221381,0.096248,0.000000,0.000000,0.000000,0.000000,0.000000,0.000000,0.000000,0.000000,0.000000,0.000000,0.000000,0.000000,0.000000,0.000000,0.000000,0.000000,0.000000,0.000000,0.000000,0.000000,0.000000,0.000000,0.000000,0.000000,0.000000,0.000000,0.000000,0.000000,0.000000,0.000000,0.000000,0.000000,0.000000,0.000000,0.000000,0.000000,0.000000,0.000000,0.000000,0.000000,0.000000,0.000000,0.000000,0.000000,0.000000,0.000000,0.000000,0.000000,0.000000,0.000000,0.000000,0.000000,0.000000,0.000000,0.000000,0.000000,0.000000,0.000000,0.000000,0.000000,0.000000,0.000000,0.000000,0.000000,0.000000,0.000000,0.000000,0.000000
0.555145,0.417858,-0.045235,0.099308,0.096829,0.126104,0.095788,0.123173,0.104034,0.116830,0.109825,0.123520,0.121087,0.129330,0.118153,0.136641,0.122420,0.140648,0.126821,0.138291,0.126425,0.139787,0.121834,0.140043,0.107998,0.136913,0.108303,0.122413,0.078496,0.093588,0.050565,0.058106,0.030094,0.034817,0.033564,0.054329,0.063072,0.104099,0.128448,0.161702,0.177957,0.192613,0.200932,0.197104,0.202178,0.200517,0.206213,0.195928,0.207322,0.187791,0.195823,0.192088,0.195543,0.187441,0.198132,0.185711,0.180417,0.182177,0.185800,0.176808,0.182396,0.183441,0.177907,0.188340,0.181738,0.196673,0.192505,0.199691,0.190081,0.210108,0.189301,0.210512,0.185985,0.212770,0.193754,0.204820,0.190292,0.223199,0.205560,0.237945,0.228343,0.244133,0.247232,0.253472,0.246105,0.247106,0.230496,0.228039,0.216154,0.214663,0.205945,0.213419,0.215608,0.202846,0.206195,0.198576,0.167011,0.101257,0.137887,0.437702,0.693926,0.977278,0.809740,0.191867,0.144869,0.176000,0.156241,0.164791,0.137118,0.169361,0.128731,0.176639,0.125590,0.192459,0.096383,0.000000,0.000000,0.000000,0.000000,0.000000,0.000000,0.000000,0.000000,0.000000,0.000000,0.000000,0.000000,0.000000,0.000000,0.000000,0.000000,0.000000,0.000000,0.000000,0.000000,0.000000,0.000000,0.000000,0.000000,0.000000,0.000000,0.000000,0.000000,0.000000,0.000000,0.000000,0.000000,0.000000,0.000000,0.000000,0.000000,0.000000,0.000000,0.000000,0.000000,0.000000,0.000000,0.000000,0.000000,0.000000,0.000000,0.000000,0.000000,0.000000,0.000000,0.000000,0.000000,0.000000,0.000000,0.000000,0.000000,0.000000,0.000000,0.000000,0.000000,0.000000,0.000000,0.000000,0.000000,0.000000,0.000000,0.000000,0.000000,0.000000,0.000000,0.000000,0.000000,0.000000
0.724640,0.833289,0.081605,0.153918,0.103099,0.150860,0.095977,0.129484,0.102135,0.121340,0.107598,0.124869,0.108926,0.131684,0.110438,0.126180,0.120817,0.124392,0.121888,0.121448,0.114391,0.118603,0.105877,0.099802,0.107056,0.094759,0.083851,0.067721,0.059573,0.035762,0.027574,0.011178,0.010937,0.005703,0.010699,0.037209,0.067498,0.110538,0.136147,0.160134,0.171691,0.179955,0.173144,0.185991,0.171505,0.188991,0.173782,0.181403,0.160973,0.166275,0.149826,0.163962,0.142003,0.164949,0.138372,0.155225,0.141513,0.152307,0.137685,0.155336,0.140869,0.145837,0.147359,0.142663,0.151184,0.149855,0.158385,0.156322,0.163965,0.158086,0.173159,0.152770,0.168654,0.158030,0.181696,0.180022,0.205436,0.185191,0.227461,0.200390,0.218052,0.175040,0.188468,0.164545,0.186325,0.149666,0.168103,0.147294,0.168548,0.144375,0.166114,0.132076,0.111901,0.012409,0.155489,0.421905,0.723957,0.726406,0.141708,0.123388,0.143878,0.130023,0.133346,0.129582,0.136900,0.124172,0.142487,0.111329,0.165809,0.058577,0.000000,0.000000,0.000000,0.000000,0.000000,0.000000,0.000000,0.000000,0.000000,0.000000,0.000000,0.000000,0.000000,0.000000,0.000000,0.000000,0.000000,0.000000,0.000000,0.000000,0.000000,0.000000,0.000000,0.000000,0.000000,0.000000,0.000000,0.000000,0.000000,0.000000,0.000000,0.000000,0.000000,0.000000,0.000000,0.000000,0.000000,0.000000,0.000000,0.000000,0.000000,0.000000,0.000000,0.000000,0.000000,0.000000,0.000000,0.000000,0.000000,0.000000,0.000000,0.000000,0.000000,0.000000,0.000000,0.000000,0.000000,0.000000,0.000000,0.000000,0.000000,0.000000,0.000000,0.000000,0.000000,0.000000,0.000000,0.000000,0.000000,0.000000,0.000000,0.000000,0.000000,0.000000,0.000000,0.000000,0.000000,0.000000
0.713507,0.833386,0.080528,0.205764,0.139280,0.191203,0.135050,0.189679,0.137366,0.187700,0.135547,0.187217,0.136539,0.185807,0.143657,0.182200,0.152162,0.190612,0.150175,0.181350,0.148562,0.176348,0.152555,0.157820,0.138617,0.139342,0.113070,0.112781,0.084290,0.069511,0.056344,0.035444,0.036971,0.018491,0.036808,0.050539,0.103825,0.124768,0.164024,0.166683,0.207500,0.207636,0.222408,0.203561,0.215447,0.212628,0.210512,0.211295,0.205599,0.199510,0.196744,0.201335,0.191723,0.195869,0.181212,0.189052,0.170395,0.192767,0.172942,0.179072,0.174079,0.182372,0.168962,0.185358,0.149414,0.164122,0.172460,0.179175,0.171872,0.182594,0.167127,0.181887,0.176827,0.161951,0.175219,0.174786,0.179536,0.189915,0.217662,0.198564,0.226366,0.208953,0.233274,0.191100,0.200132,0.170710,0.186699,0.147790,0.171872,0.137643,0.165331,0.152283,0.171760,0.136867,0.164271,0.096831,0.055577,-0.006927,0.237930,0.408653,0.757795,0.550862,-0.002027,0.110639,0.110513,0.113180,0.121241,0.108776,0.117122,0.118329,0.136648,0.094158,0.168090,0.037586,0.000000,0.000000,0.000000,0.000000,0.000000,0.000000,0.000000,0.000000,0.000000,0.000000,0.000000,0.000000,0.000000,0.000000,0.000000,0.000000,0.000000,0.000000,0.000000,0.000000,0.000000,0.000000,0.000000,0.000000,0.000000,0.000000,0.000000,0.000000,0.000000,0.000000,0.000000,0.000000,0.000000,0.000000,0.000000,0.000000,0.000000,0.000000,0.000000,0.000000,0.000000,0.000000,0.000000,0.000000,0.000000,0.000000,0.000000,0.000000,0.000000,0.000000,0.000000,0.000000,0.000000,0.000000,0.000000,0.000000,0.000000,0.000000,0.000000,0.000000,0.000000,0.000000,0.000000,0.000000,0.000000,0.000000,0.000000,0.000000,0.000000,0.000000,0.000000,0.000000,0.000000,0.000000
0.742808,0.672290,-0.004791,0.223431,0.143002,0.212530,0.159893,0.205721,0.153376,0.224188,0.164020,0.212380,0.172594,0.210367,0.161963,0.200581,0.163588,0.216017,0.181230,0.212546,0.192652,0.191840,0.163567,0.182855,0.173785,0.174086,0.146628,0.159777,0.127205,0.111824,0.108442,0.077824,0.069117,0.044109,0.042788,0.039022,0.069334,0.096650,0.146629,0.181854,0.215956,0.220215,0.226191,0.231679,0.226844,0.244249,0.225839,0.219781,0.218543,0.231674,0.205691,0.231696,0.192254,0.215149,0.181819,0.207806,0.183431,0.220312,0.174298,0.224025,0.170096,0.183928,0.168839,0.184759,0.161279,0.190103,0.186383,0.189565,0.183353,0.192293,0.175726,0.175464,0.179794,0.179533,0.179249,0.178903,0.201720,0.196227,0.210192,0.229743,0.255387,0.219448,0.229196,0.217085,0.193785,0.191283,0.184901,0.184750,0.173261,0.173707,0.169244,0.181760,0.155211,0.181462,0.122250,0.103314,0.013048,0.337077,0.529102,0.922016,0.774933,0.056864,0.084268,0.164563,0.140235,0.172493,0.148553,0.189755,0.134357,0.197800,0.134978,0.221456,0.087006,0.000000,0.000000,0.000000,0.000000,0.000000,0.000000,0.000000,0.000000,0.000000,0.000000,0.000000,0.000000,0.000000,0.000000,0.000000,0.000000,0.000000,0.000000,0.000000,0.000000,0.000000,0.000000,0.000000,0.000000,0.000000,0.000000,0.000000,0.000000,0.000000,0.000000,0.000000,0.000000,0.000000,0.000000,0.000000,0.000000,0.000000,0.000000,0.000000,0.000000,0.000000,0.000000,0.000000,0.000000,0.000000,0.000000,0.000000,0.000000,0.000000,0.000000,0.000000,0.000000,0.000000,0.000000,0.000000,0.000000,0.000000,0.000000,0.000000,0.000000,0.000000,0.000000,0.000000,0.000000,0.000000,0.000000,0.000000,0.000000,0.000000,0.000000,0.000000,0.000000,0.000000,0.000000,0.000000
0.557361,0.587077,-0.000180,0.094759,0.100320,0.125054,0.108734,0.131243,0.119594,0.122431,0.122587,0.130963,0.123348,0.133575,0.125569,0.134922,0.128921,0.144354,0.128430,0.154475,0.134373,0.149762,0.138770,0.149908,0.131802,0.152289,0.126737,0.135768,0.112706,0.124455,0.080819,0.094817,0.049227,0.055427,0.031145,0.037156,0.026833,0.057411,0.061667,0.117967,0.137563,0.170058,0.185260,0.203977,0.196767,0.206254,0.210535,0.209094,0.206098,0.206859,0.203225,0.195051,0.211288,0.191039,0.204989,0.196778,0.198182,0.192181,0.192208,0.178654,0.193712,0.178073,0.181212,0.186361,0.185465,0.185404,0.188049,0.188061,0.185033,0.195876,0.189148,0.190493,0.187080,0.202518,0.188057,0.202885,0.190205,0.205107,0.185472,0.207060,0.177892,0.215656,0.197367,0.230459,0.216278,0.245094,0.227732,0.262624,0.241493,0.256072,0.223992,0.226149,0.195181,0.214078,0.194036,0.201866,0.196420,0.203744,0.184458,0.193530,0.191244,0.171146,0.121510,0.079353,0.071359,0.331858,0.598954,0.930088,0.813697,0.192834,0.164805,0.162174,0.157998,0.150651,0.142908,0.149786,0.129169,0.159340,0.118356,0.167063,0.081519,0.000000,0.000000,0.000000,0.000000,0.000000,0.000000,0.000000,0.000000,0.000000,0.000000,0.000000,0.000000,0.000000,0.000000,0.000000,0.000000,0.000000,0.000000,0.000000,0.000000,0.000000,0.000000,0.000000,0.000000,0.000000,0.000000,0.000000,0.000000,0.000000,0.000000,0.000000,0.000000,0.000000,0.000000,0.000000,0.000000,0.000000,0.000000,0.000000,0.000000,0.000000,0.000000,0.000000,0.000000,0.000000,0.000000,0.000000,0.000000,0.000000,0.000000,0.000000,0.000000,0.000000,0.000000,0.000000,0.000000,0.000000,0.000000,0.000000,0.000000,0.000000,0.000000,0.000000,0.000000,0.000000,0.000000,0.000000
0.724075,0.792581,0.110025,0.203588,0.125555,0.181740,0.119636,0.165443,0.118460,0.154449,0.124678,0.150095,0.116219,0.154961,0.134922,0.145700,0.135771,0.155019,0.134392,0.145510,0.141114,0.143783,0.131837,0.130753,0.122818,0.111354,0.115223,0.102271,0.094835,0.082549,0.070971,0.045550,0.040483,0.022610,0.010416,0.002602,0.012206,0.007879,0.042515,0.072474,0.103207,0.137053,0.155297,0.162480,0.179146,0.184137,0.176766,0.185324,0.180446,0.194601,0.180569,0.195638,0.176743,0.187108,0.166388,0.183352,0.156373,0.173221,0.147997,0.172745,0.147053,0.154455,0.134455,0.154126,0.130030,0.154570,0.143658,0.153755,0.140308,0.155430,0.142847,0.157822,0.146450,0.152957,0.152609,0.161452,0.150583,0.151888,0.152771,0.140232,0.154648,0.156111,0.171407,0.178456,0.187014,0.196930,0.211134,0.196199,0.206590,0.191039,0.183438,0.174937,0.166657,0.161720,0.154551,0.164069,0.150464,0.162377,0.148649,0.157421,0.111878,0.059828,0.039875,0.331003,0.545793,0.853165,0.658400,0.098758,0.043568,0.117588,0.102943,0.128129,0.095516,0.141790,0.086493,0.145569,0.082954,0.169078,0.031033,0.000000,0.000000,0.000000,0.000000,0.000000,0.000000,0.000000,0.000000,0.000000,0.000000,0.000000,0.000000,0.000000,0.000000,0.000000,0.000000,0.000000,0.000000,0.000000,0.000000,0.000000,0.000000,0.000000,0.000000,0.000000,0.000000,0.000000,0.000000,0.000000,0.000000,0.000000,0.000000,0.000000,0.000000,0.000000,0.000000,0.000000,0.000000,0.000000,0.000000,0.000000,0.000000,0.000000,0.000000,0.000000,0.000000,0.000000,0.000000,0.000000,0.000000,0.000000,0.000000,0.000000,0.000000,0.000000,0.000000,0.000000,0.000000,0.000000,0.000000,0.000000,0.000000,0.000000,0.000000,0.000000,0.000000,0.000000,0.000000,0.000000
0.737901,0.722537,-0.008384,0.095216,0.079566,0.140391,0.093462,0.130514,0.109808,0.120091,0.110243,0.128613,0.111526,0.128396,0.124903,0.128862,0.131484,0.136565,0.129432,0.145259,0.142416,0.139418,0.120776,0.134906,0.112263,0.122901,0.102015,0.105377,0.074891,0.091371,0.041470,0.054152,0.024987,0.036074,0.007742,0.025005,-0.002001,0.041191,0.027230,0.072022,0.083011,0.146737,0.148431,0.182524,0.176759,0.189888,0.188476,0.197368,0.175853,0.199770,0.192743,0.188339,0.182677,0.181250,0.172106,0.176437,0.174032,0.155455,0.165384,0.169395,0.164114,0.152350,0.169231,0.141707,0.159843,0.151172,0.149725,0.151874,0.153262,0.152735,0.157442,0.160672,0.147527,0.157311,0.153902,0.155323,0.145281,0.164243,0.142199,0.185022,0.169689,0.197357,0.186275,0.213470,0.191769,0.221529,0.191041,0.204657,0.157375,0.183772,0.142228,0.178963,0.138909,0.164596,0.136302,0.160019,0.137742,0.167812,0.117222,0.096401,0.029895,0.266918,0.463555,0.781445,0.450158,0.001394,0.114200,0.103452,0.115002,0.115094,0.119615,0.109805,0.100898,0.121160,0.087363,0.157234,0.048955,0.000000,0.000000,0.000000,0.000000,0.000000,0.000000,0.000000,0.000000,0.000000,0.000000,0.000000,0.000000,0.000000,0.000000,0.000000,0.000000,0.000000,0.000000,0.000000,0.000000,0.000000,0.000000,0.000000,0.000000,0.000000,0.000000,0.000000,0.000000,0.000000,0.000000,0.000000,0.000000,0.000000,0.000000,0.000000,0.000000,0.000000,0.000000,0.000000,0.000000,0.000000,0.000000,0.000000,0.000000,0.000000,0.000000,0.000000,0.000000,0.000000,0.000000,0.000000,0.000000,0.000000,0.000000,0.000000,0.000000,0.000000,0.000000,0.000000,0.000000,0.000000,0.000000,0.000000,0.000000,0.000000,0.000000,0.000000,0.000000,0.000000,0.000000,0.000000
0.670741,0.474525,-0.010450,0.183769,0.106918,0.173309,0.123525,0.176667,0.113022,0.164275,0.116799,0.164599,0.131353,0.180378,0.133061,0.167638,0.141789,0.168283,0.142024,0.169075,0.146462,0.157577,0.147219,0.150259,0.146159,0.151392,0.128794,0.126601,0.111725,0.084619,0.078003,0.056405,0.041935,0.017130,0.027711,0.002994,0.051530,0.072088,0.117023,0.140191,0.176258,0.185821,0.222101,0.186631,0.203902,0.201720,0.214833,0.202004,0.209965,0.195348,0.201325,0.188826,0.200373,0.186119,0.196314,0.197024,0.186891,0.178166,0.172280,0.190724,0.172261,0.181083,0.169832,0.184653,0.167468,0.195736,0.170686,0.190240,0.181300,0.193563,0.192908,0.186794,0.187444,0.186657,0.190183,0.191929,0.212603,0.218454,0.233495,0.230967,0.241454,0.226317,0.262557,0.237227,0.246300,0.222369,0.236560,0.187844,0.224987,0.182562,0.225288,0.181083,0.222775,0.178870,0.228749,0.155997,0.149345,0.077819,0.402737,0.605983,0.992360,0.609025,0.059106,0.163693,0.186626,0.195085,0.193972,0.184088,0.208691,0.193348,0.208671,0.196103,0.238241,0.143394,0.000000,0.000000,0.000000,0.000000,0.000000,0.000000,0.000000,0.000000,0.000000,0.000000,0.000000,0.000000,0.000000,0.000000,0.000000,0.000000,0.000000,0.000000,0.000000,0.000000,0.000000,0.000000,0.000000,0.000000,0.000000,0.000000,0.000000,0.000000,0.000000,0.000000,0.000000,0.000000,0.000000,0.000000,0.000000,0.000000,0.000000,0.000000,0.000000,0.000000,0.000000,0.000000,0.000000,0.000000,0.000000,0.000000,0.000000,0.000000,0.000000,0.000000,0.000000,0.000000,0.000000,0.000000,0.000000,0.000000,0.000000,0.000000,0.000000,0.000000,0.000000,0.000000,0.000000,0.000000,0.000000,0.000000,0.000000,0.000000,0.000000,0.000000,0.000000,0.000000,0.000000,0.000000
0.557483,0.385671,-0.029939,0.118480,0.081308,0.128580,0.088475,0.119784,0.100999,0.127121,0.096351,0.139513,0.101162,0.132565,0.107448,0.133616,0.110284,0.138882,0.100696,0.138676,0.107944,0.129644,0.114056,0.131332,0.101469,0.114580,0.096084,0.106684,0.077384,0.080788,0.054724,0.048413,0.029306,0.021773,0.011827,0.012664,0.018591,0.044238,0.082752,0.105497,0.143828,0.155657,0.176423,0.180664,0.190723,0.175269,0.193892,0.183309,0.197719,0.177195,0.189843,0.180928,0.187731,0.172431,0.181423,0.167997,0.175445,0.174844,0.171944,0.171268,0.161323,0.172254,0.162843,0.166253,0.164053,0.163657,0.158749,0.167863,0.153143,0.172991,0.161765,0.168526,0.163096,0.174598,0.165963,0.171602,0.166271,0.171174,0.169679,0.171615,0.173585,0.182790,0.200563,0.205472,0.217504,0.219354,0.235198,0.217338,0.221584,0.199263,0.214893,0.178530,0.192635,0.173893,0.198204,0.166332,0.193578,0.158632,0.198104,0.136112,0.102265,0.070870,0.370220,0.587066,0.950679,0.782304,0.180499,0.157155,0.158661,0.143902,0.146905,0.137097,0.155826,0.131937,0.155624,0.123887,0.172844,0.092944,0.000000,0.000000,0.000000,0.000000,0.000000,0.000000,0.000000,0.000000,0.000000,0.000000,0.000000,0.000000,0.000000,0.000000,0.000000,0.000000,0.000000,0.000000,0.000000,0.000000,0.000000,0.000000,0.000000,0.000000,0.000000,0.000000,0.000000,0.000000,0.000000,0.000000,0.000000,0.000000,0.000000,0.000000,0.000000,0.000000,0.000000,0.000000,0.000000,0.000000,0.000000,0.000000,0.000000,0.000000,0.000000,0.000000,0.000000,0.000000,0.000000,0.000000,0.000000,0.000000,0.000000,0.000000,0.000000,0.000000,0.000000,0.000000,0.000000,0.000000,0.000000,0.000000,0.000000,0.000000,0.000000,0.000000,0.000000,0.000000,0.000000,0.000000
0.742306,0.764431,0.084270,0.175429,0.100880,0.148243,0.095241,0.140365,0.104478,0.136159,0.099785,0.137379,0.100534,0.144137,0.106092,0.140310,0.107983,0.137785,0.103903,0.142070,0.097892,0.128342,0.090631,0.103004,0.079483,0.084020,0.054539,0.065905,0.023809,0.034236,0.003704,0.013062,0.001831,0.017914,0.026869,0.060312,0.086284,0.108203,0.139805,0.154787,0.170502,0.175801,0.179212,0.178331,0.178250,0.174507,0.174888,0.160847,0.163616,0.168372,0.161311,0.159103,0.155232,0.151977,0.149600,0.152482,0.145216,0.156448,0.137381,0.154910,0.142788,0.161191,0.132415,0.161752,0.134398,0.162510,0.137590,0.167368,0.141017,0.173081,0.140689,0.173046,0.145599,0.168605,0.149453,0.181918,0.167939,0.203336,0.181210,0.217992,0.205394,0.216477,0.197637,0.197710,0.178817,0.189839,0.182592,0.182638,0.165329,0.171582,0.165983,0.166601,0.162691,0.175526,0.148724,0.128485,0.020351,0.201722,0.459055,0.807395,0.586267,0.088698,0.156668,0.143672,0.140234,0.147877,0.124635,0.156061,0.122255,0.167664,0.111755,0.202380,0.054122,0.000000,0.000000,0.000000,0.000000,0.000000,0.000000,0.000000,0.000000,0.000000,0.000000,0.000000,0.000000,0.000000,0.000000,0.000000,0.000000,0.000000,0.000000,0.000000,0.000000,0.000000,0.000000,0.000000,0.000000,0.000000,0.000000,0.000000,0.000000,0.000000,0.000000,0.000000,0.000000,0.000000,0.000000,0.000000,0.000000,0.000000,0.000000,0.000000,0.000000,0.000000,0.000000,0.000000,0.000000,0.000000,0.000000,0.000000,0.000000,0.000000,0.000000,0.000000,0.000000,0.000000,0.000000,0.000000,0.000000,0.000000,0.000000,0.000000,0.000000,0.000000,0.000000,0.000000,0.000000,0.000000,0.000000,0.000000,0.000000,0.000000,0.000000,0.000000,0.000000,0.000000,0.000000,0.000000
0.724326,0.716159,0.092953,0.275428,0.175059,0.245730,0.184230,0.227151,0.193274,0.228206,0.198322,0.230915,0.211250,0.223444,0.210454,0.234534,0.215592,0.221550,0.221270,0.214785,0.215121,0.208191,0.204583,0.188041,0.176920,0.182344,0.146208,0.140786,0.122044,0.109905,0.095057,0.100604,0.084687,0.106962,0.101170,0.136397,0.126657,0.181312,0.184781,0.229024,0.224758,0.243471,0.221558,0.250987,0.221495,0.253063,0.214870,0.238144,0.209253,0.237550,0.213308,0.223695,0.202932,0.226932,0.209103,0.202237,0.193712,0.202002,0.191376,0.193706,0.193536,0.189107,0.191862,0.187947,0.197729,0.185032,0.191488,0.186400,0.189326,0.191436,0.187107,0.179791,0.182883,0.191471,0.192294,0.194927,0.204574,0.218698,0.205167,0.242453,0.226746,0.235311,0.198971,0.200750,0.167376,0.191940,0.154512,0.190429,0.157897,0.186021,0.131739,0.174965,0.133744,0.149824,0.031730,0.088343,0.272405,0.417499,0.477621,0.840392,0.478472,0.001769,0.103503,0.117598,0.103284,0.123887,0.101151,0.120535,0.114331,0.135070,0.089063,0.158472,0.037812,0.000000,0.000000,0.000000,0.000000,0.000000,0.000000,0.000000,0.000000,0.000000,0.000000,0.000000,0.000000,0.000000,0.000000,0.000000,0.000000,0.000000,0.000000,0.000000,0.000000,0.000000,0.000000,0.000000,0.000000,0.000000,0.000000,0.000000,0.000000,0.000000,0.000000,0.000000,0.000000,0.000000,0.000000,0.000000,0.000000,0.000000,0.000000,0.000000,0.000000,0.000000,0.000000,0.000000,0.000000,0.000000,0.000000,0.000000,0.000000,0.000000,0.000000,0.000000,0.000000,0.000000,0.000000,0.000000,0.000000,0.000000,0.000000,0.000000,0.000000,0.000000,0.000000,0.000000,0.000000,0.000000,0.000000,0.000000,0.000000,0.000000,0.000000,0.000000,0.000000,0.000000,0.000000,0.000000
0.745456,0.569851,0.009901,0.215486,0.149388,0.200579,0.162347,0.195021,0.159106,0.215056,0.163285,0.202206,0.163916,0.205505,0.166442,0.197023,0.170512,0.217741,0.168334,0.202862,0.174078,0.199309,0.144718,0.171237,0.140000,0.161634,0.135920,0.129518,0.093027,0.097005,0.052750,0.064764,0.031032,0.030905,0.041794,0.056489,0.095700,0.130870,0.167503,0.174294,0.199952,0.206995,0.208732,0.207410,0.219645,0.199304,0.217276,0.191236,0.199957,0.197720,0.197735,0.195858,0.191836,0.182706,0.194130,0.183400,0.172709,0.183290,0.169305,0.179120,0.171538,0.174826,0.174923,0.192796,0.178692,0.191152,0.180610,0.195318,0.178165,0.190718,0.176360,0.176157,0.177135,0.193066,0.177414,0.194808,0.189934,0.204713,0.219978,0.229787,0.235790,0.240001,0.259936,0.247680,0.255578,0.215865,0.244038,0.208711,0.220708,0.195850,0.232337,0.193741,0.223503,0.197071,0.234060,0.179580,0.231737,0.171051,0.149328,0.071695,0.372796,0.573490,0.959051,0.696374,0.083092,0.155000,0.179808,0.175611,0.187766,0.168202,0.184697,0.165265,0.198755,0.154242,0.227653,0.111909,0.000000,0.000000,0.000000,0.000000,0.000000,0.000000,0.000000,0.000000,0.000000,0.000000,0.000000,0.000000,0.000000,0.000000,0.000000,0.000000,0.000000,0.000000,0.000000,0.000000,0.000000,0.000000,0.000000,0.000000,0.000000,0.000000,0.000000,0.000000,0.000000,0.000000,0.000000,0.000000,0.000000,0.000000,0.000000,0.000000,0.000000,0.000000,0.000000,0.000000,0.000000,0.000000,0.000000,0.000000,0.000000,0.000000,0.000000,0.000000,0.000000,0.000000,0.000000,0.000000,0.000000,0.000000,0.000000,0.000000,0.000000,0.000000,0.000000,0.000000,0.000000,0.000000,0.000000,0.000000,0.000000,0.000000,0.000000,0.000000,0.000000,0.000000,0.000000,0.000000
0.633942,0.554490,-0.011116,0.140365,0.094833,0.144870,0.105017,0.136855,0.101343,0.138876,0.106573,0.140493,0.112008,0.148029,0.112598,0.137084,0.117362,0.138601,0.116434,0.142688,0.113308,0.145595,0.111979,0.134922,0.110401,0.120214,0.094267,0.100113,0.071451,0.062639,0.040517,0.033304,0.021441,0.005456,0.000458,0.015027,0.022758,0.021826,0.051286,0.076989,0.115340,0.135730,0.172356,0.170126,0.194827,0.185206,0.190995,0.187987,0.189797,0.179240,0.193430,0.175606,0.185792,0.182428,0.177009,0.180020,0.173724,0.173945,0.168480,0.173944,0.154154,0.174039,0.163720,0.165258,0.160552,0.169150,0.154215,0.168375,0.157107,0.172076,0.168142,0.176445,0.166007,0.178058,0.170774,0.181659,0.181204,0.176416,0.178470,0.178101,0.187458,0.174282,0.183798,0.182364,0.215792,0.190871,0.236566,0.212173,0.229937,0.202565,0.213931,0.185141,0.198096,0.164746,0.190736,0.162829,0.179652,0.164889,0.187097,0.158961,0.175480,0.106037,0.064573,0.089070,0.394953,0.631773,0.979769,0.722687,0.151990,0.146202,0.135779,0.167611,0.146104,0.124680,0.134859,0.116103,0.141871,0.108333,0.170662,0.054912,0.000000,0.000000,0.000000,0.000000,0.000000,0.000000,0.000000,0.000000,0.000000,0.000000,0.000000,0.000000,0.000000,0.000000,0.000000,0.000000,0.000000,0.000000,0.000000,0.000000,0.000000,0.000000,0.000000,0.000000,0.000000,0.000000,0.000000,0.000000,0.000000,0.000000,0.000000,0.000000,0.000000,0.000000,0.000000,0.000000,0.000000,0.000000,0.000000,0.000000,0.000000,0.000000,0.000000,0.000000,0.000000,0.000000,0.000000,0.000000,0.000000,0.000000,0.000000,0.000000,0.000000,0.000000,0.000000,0.000000,0.000000,0.000000,0.000000,0.000000,0.000000,0.000000,0.000000,0.000000,0.000000,0.000000,0.000000,0.000000
0.757404,0.728109,0.086451,0.180515,0.101938,0.194121,0.110891,0.149572,0.101172,0.144534,0.102068,0.148824,0.109379,0.140660,0.116484,0.142094,0.117365,0.148467,0.121197,0.142703,0.116514,0.133992,0.125668,0.129062,0.109467,0.118317,0.106090,0.089505,0.088442,0.073803,0.059120,0.045354,0.036170,0.019125,0.018090,0.009267,0.012111,0.004767,0.031115,0.038353,0.072103,0.107860,0.138026,0.153611,0.182417,0.173594,0.186346,0.187044,0.176989,0.185852,0.181563,0.186420,0.179914,0.182620,0.175729,0.190753,0.171302,0.181410,0.173105,0.186477,0.167436,0.182979,0.165784,0.179689,0.165349,0.175413,0.161057,0.180603,0.179766,0.168769,0.170080,0.174335,0.180281,0.184572,0.189021,0.182288,0.197317,0.188685,0.203880,0.192127,0.210546,0.187349,0.200699,0.189766,0.218830,0.203039,0.240197,0.215806,0.237074,0.234265,0.258015,0.235564,0.252832,0.213411,0.223547,0.204747,0.214302,0.197594,0.208642,0.194623,0.211169,0.200032,0.208494,0.166531,0.120228,0.034594,0.078517,0.227625,0.426024,0.599455,0.922203,0.587849,0.122299,0.194940,0.177011,0.179010,0.176677,0.175190,0.184918,0.173284,0.198682,0.150697,0.235839,0.108887,0.000000,0.000000,0.000000,0.000000,0.000000,0.000000,0.000000,0.000000,0.000000,0.000000,0.000000,0.000000,0.000000,0.000000,0.000000,0.000000,0.000000,0.000000,0.000000,0.000000,0.000000,0.000000,0.000000,0.000000,0.000000,0.000000,0.000000,0.000000,0.000000,0.000000,0.000000,0.000000,0.000000,0.000000,0.000000,0.000000,0.000000,0.000000,0.000000,0.000000,0.000000,0.000000,0.000000,0.000000,0.000000,0.000000,0.000000,0.000000,0.000000,0.000000,0.000000,0.000000,0.000000,0.000000,0.000000,0.000000,0.000000,0.000000,0.000000,0.000000,0.000000,0.000000,0.000000,0.000000
0.766055,0.608400,0.024768,0.206643,0.106876,0.176268,0.111669,0.172084,0.118700,0.176236,0.123224,0.166226,0.142533,0.174429,0.131307,0.169820,0.147153,0.153727,0.154202,0.156293,0.137760,0.151235,0.147066,0.134845,0.138580,0.134816,0.136926,0.112514,0.116603,0.092235,0.083366,0.065804,0.061342,0.035424,0.033252,0.013933,0.021322,0.028637,0.047845,0.077032,0.118824,0.139617,0.163928,0.185570,0.178917,0.194324,0.178449,0.188725,0.181205,0.186523,0.178358,0.188047,0.167564,0.188442,0.184965,0.194970,0.172516,0.193608,0.175110,0.193014,0.175718,0.187220,0.171726,0.186981,0.178115,0.189839,0.178002,0.180354,0.197092,0.184744,0.183796,0.167264,0.187166,0.178817,0.184821,0.169426,0.184038,0.164779,0.201873,0.163787,0.216167,0.197749,0.227304,0.214243,0.243312,0.198990,0.216787,0.176469,0.207721,0.164471,0.190058,0.157159,0.187405,0.164569,0.198095,0.175549,0.184308,0.141791,0.148335,0.035269,0.213971,0.427550,0.772967,0.660288,0.031503,0.124031,0.139388,0.143517,0.134643,0.139634,0.132279,0.136165,0.167677,0.116807,0.198493,0.069061,0.000000,0.000000,0.000000,0.000000,0.000000,0.000000,0.000000,0.000000,0.000000,0.000000,0.000000,0.000000,0.000000,0.000000,0.000000,0.000000,0.000000,0.000000,0.000000,0.000000,0.000000,0.000000,0.000000,0.000000,0.000000,0.000000,0.000000,0.000000,0.000000,0.000000,0.000000,0.000000,0.000000,0.000000,0.000000,0.000000,0.000000,0.000000,0.000000,0.000000,0.000000,0.000000,0.000000,0.000000,0.000000,0.000000,0.000000,0.000000,0.000000,0.000000,0.000000,0.000000,0.000000,0.000000,0.000000,0.000000,0.000000,0.000000,0.000000,0.000000,0.000000,0.000000,0.000000,0.000000,0.000000,0.000000,0.000000,0.000000,0.000000,0.000000,0.000000,0.000000
0.615208,0.523955,-0.019524,0.142689,0.097796,0.143529,0.096050,0.141456,0.089389,0.148360,0.110471,0.142611,0.117160,0.148859,0.127174,0.151170,0.129949,0.151267,0.126956,0.139104,0.127439,0.138425,0.122953,0.136012,0.123876,0.118016,0.111426,0.096134,0.080884,0.065410,0.044649,0.031344,0.024679,0.002425,0.012049,0.012089,0.045519,0.083706,0.123280,0.129817,0.161164,0.173778,0.181027,0.189887,0.195106,0.189840,0.188571,0.188678,0.190933,0.202432,0.186049,0.193544,0.186465,0.197496,0.193075,0.210359,0.182842,0.204585,0.179441,0.205277,0.189078,0.214250,0.192645,0.212051,0.196836,0.224694,0.206956,0.221792,0.215166,0.227888,0.212934,0.233234,0.213872,0.235872,0.222971,0.239768,0.256122,0.265924,0.262398,0.280654,0.297111,0.295250,0.293746,0.272500,0.268899,0.256625,0.248812,0.250125,0.244478,0.247092,0.245024,0.244366,0.223748,0.178518,0.102915,0.342302,0.597066,0.930992,0.800724,0.106712,0.130720,0.190008,0.201739,0.218525,0.190287,0.218068,0.189920,0.243688,0.183195,0.259688,0.149765,0.000000,0.000000,0.000000,0.000000,0.000000,0.000000,0.000000,0.000000,0.000000,0.000000,0.000000,0.000000,0.000000,0.000000,0.000000,0.000000,0.000000,0.000000,0.000000,0.000000,0.000000,0.000000,0.000000,0.000000,0.000000,0.000000,0.000000,0.000000,0.000000,0.000000,0.000000,0.000000,0.000000,0.000000,0.000000,0.000000,0.000000,0.000000,0.000000,0.000000,0.000000,0.000000,0.000000,0.000000,0.000000,0.000000,0.000000,0.000000,0.000000,0.000000,0.000000,0.000000,0.000000,0.000000,0.000000,0.000000,0.000000,0.000000,0.000000,0.000000,0.000000,0.000000,0.000000,0.000000,0.000000,0.000000,0.000000,0.000000,0.000000,0.000000,0.000000,0.000000,0.000000,0.000000,0.000000,0.000000,0.000000
0.694622,0.685593,-0.019478,0.124162,0.103432,0.173176,0.131473,0.158120,0.132681,0.161304,0.153148,0.160277,0.154259,0.164210,0.157650,0.176223,0.169989,0.168818,0.175812,0.168989,0.175034,0.165020,0.161579,0.163467,0.157437,0.143181,0.139120,0.113373,0.107109,0.088737,0.068803,0.067931,0.051367,0.048876,0.044235,0.074565,0.082078,0.134172,0.143955,0.192224,0.199614,0.221493,0.212181,0.239677,0.214998,0.236516,0.217093,0.237531,0.215898,0.238845,0.215623,0.230778,0.215492,0.221561,0.213433,0.221291,0.211544,0.223130,0.213117,0.214036,0.220198,0.210974,0.221021,0.211053,0.225316,0.220210,0.234296,0.220150,0.245065,0.229157,0.251319,0.236653,0.252186,0.238101,0.252915,0.233235,0.267260,0.255234,0.285527,0.276053,0.292013,0.285213,0.307176,0.291871,0.307476,0.280055,0.280547,0.258852,0.260220,0.255543,0.244964,0.245835,0.244540,0.237717,0.249555,0.222137,0.169937,0.114083,0.331460,0.623755,0.944107,0.801459,0.213291,0.209024,0.210720,0.220161,0.201520,0.193921,0.208148,0.190779,0.216650,0.178304,0.237106,0.131271,0.000000,0.000000,0.000000,0.000000,0.000000,0.000000,0.000000,0.000000,0.000000,0.000000,0.000000,0.000000,0.000000,0.000000,0.000000,0.000000,0.000000,0.000000,0.000000,0.000000,0.000000,0.000000,0.000000,0.000000,0.000000,0.000000,0.000000,0.000000,0.000000,0.000000,0.000000,0.000000,0.000000,0.000000,0.000000,0.000000,0.000000,0.000000,0.000000,0.000000,0.000000,0.000000,0.000000,0.000000,0.000000,0.000000,0.000000,0.000000,0.000000,0.000000,0.000000,0.000000,0.000000,0.000000,0.000000,0.000000,0.000000,0.000000,0.000000,0.000000,0.000000,0.000000,0.000000,0.000000,0.000000,0.000000,0.000000,0.000000,0.000000,0.000000,0.000000,0.000000,0.000000,0.000000
0.721999,0.765141,0.088992,0.207881,0.132001,0.203334,0.124198,0.176147,0.132930,0.174726,0.136065,0.172147,0.137236,0.169990,0.150993,0.167470,0.152795,0.171107,0.151678,0.157294,0.160528,0.148111,0.146852,0.142307,0.133108,0.124118,0.115985,0.101963,0.094985,0.068217,0.059497,0.047588,0.036124,0.017293,0.021326,0.023107,0.033434,0.074434,0.087841,0.129323,0.146233,0.178060,0.177657,0.207020,0.192290,0.204043,0.199032,0.213883,0.193829,0.212440,0.180272,0.210753,0.169230,0.197568,0.176888,0.191946,0.166722,0.197577,0.168132,0.181189,0.164125,0.192697,0.165879,0.190449,0.167722,0.180117,0.171497,0.183706,0.177302,0.187576,0.180775,0.185363,0.185177,0.182255,0.187961,0.184699,0.188171,0.191968,0.195495,0.199926,0.221209,0.219865,0.237254,0.232912,0.226606,0.233612,0.220407,0.218596,0.200354,0.208556,0.181889,0.188917,0.164243,0.193308,0.169112,0.193098,0.131600,0.116482,0.005639,0.227361,0.448245,0.796873,0.539389,0.071351,0.132451,0.136745,0.119092,0.127746,0.112119,0.147453,0.094702,0.146266,0.086004,0.169836,0.029565,0.000000,0.000000,0.000000,0.000000,0.000000,0.000000,0.000000,0.000000,0.000000,0.000000,0.000000,0.000000,0.000000,0.000000,0.000000,0.000000,0.000000,0.000000,0.000000,0.000000,0.000000,0.000000,0.000000,0.000000,0.000000,0.000000,0.000000,0.000000,0.000000,0.000000,0.000000,0.000000,0.000000,0.000000,0.000000,0.000000,0.000000,0.000000,0.000000,0.000000,0.000000,0.000000,0.000000,0.000000,0.000000,0.000000,0.000000,0.000000,0.000000,0.000000,0.000000,0.000000,0.000000,0.000000,0.000000,0.000000,0.000000,0.000000,0.000000,0.000000,0.000000,0.000000,0.000000,0.000000,0.000000,0.000000,0.000000,0.000000,0.000000,0.000000,0.000000,0.000000,0.000000
0.747902,0.662209,0.111542,0.284063,0.206230,0.252850,0.202523,0.246353,0.222619,0.227298,0.217174,0.230355,0.218388,0.224866,0.211436,0.221812,0.220540,0.218079,0.205944,0.221952,0.213831,0.215528,0.190509,0.194218,0.175474,0.172732,0.159015,0.149771,0.113243,0.126050,0.091079,0.099792,0.073165,0.088235,0.056850,0.078677,0.088897,0.129707,0.143221,0.197839,0.204678,0.222093,0.218898,0.232366,0.229000,0.220266,0.214837,0.222064,0.214115,0.209736,0.203000,0.189186,0.196461,0.187918,0.194507,0.178196,0.199973,0.169694,0.198173,0.177098,0.186269,0.168141,0.192213,0.158937,0.193725,0.174573,0.191403,0.177811,0.185369,0.179997,0.178082,0.183630,0.181950,0.182115,0.179180,0.172475,0.176153,0.195786,0.186066,0.204302,0.189524,0.220751,0.218224,0.219531,0.202881,0.182534,0.187652,0.162996,0.172722,0.162835,0.172743,0.154469,0.165162,0.142124,0.171552,0.110776,0.105024,0.007717,0.296711,0.448069,0.840557,0.501582,-0.010896,0.093898,0.110126,0.115758,0.127939,0.110391,0.149343,0.108023,0.157473,0.101116,0.198130,0.048448,0.000000,0.000000,0.000000,0.000000,0.000000,0.000000,0.000000,0.000000,0.000000,0.000000,0.000000,0.000000,0.000000,0.000000,0.000000,0.000000,0.000000,0.000000,0.000000,0.000000,0.000000,0.000000,0.000000,0.000000,0.000000,0.000000,0.000000,0.000000,0.000000,0.000000,0.000000,0.000000,0.000000,0.000000,0.000000,0.000000,0.000000,0.000000,0.000000,0.000000,0.000000,0.000000,0.000000,0.000000,0.000000,0.000000,0.000000,0.000000,0.000000,0.000000,0.000000,0.000000,0.000000,0.000000,0.000000,0.000000,0.000000,0.000000,0.000000,0.000000,0.000000,0.000000,0.000000,0.000000,0.000000,0.000000,0.000000,0.000000,0.000000,0.000000,0.000000,0.000000,0.000000,0.000000
0.613687,0.452464,-0.026019,0.141817,0.093808,0.150982,0.110789,0.146729,0.128622,0.146751,0.129806,0.153058,0.144937,0.151458,0.130063,0.135477,0.139862,0.146485,0.150874,0.146366,0.140263,0.144543,0.128188,0.144731,0.128571,0.137633,0.111656,0.110868,0.081116,0.085121,0.052348,0.060672,0.015799,0.021364,-0.000085,0.034463,0.035718,0.085669,0.089847,0.132824,0.148040,0.184291,0.177084,0.202919,0.196269,0.204698,0.202196,0.201271,0.204553,0.197426,0.202803,0.192828,0.208930,0.195580,0.206161,0.194988,0.204543,0.188416,0.205346,0.186579,0.198616,0.188784,0.198917,0.181066,0.198514,0.180874,0.209639,0.194605,0.204016,0.200752,0.207680,0.194542,0.210743,0.210433,0.203946,0.207818,0.201441,0.207018,0.202952,0.217898,0.218346,0.233638,0.230573,0.250455,0.255896,0.262307,0.248420,0.232733,0.230423,0.220852,0.220762,0.210838,0.207393,0.205178,0.213443,0.194861,0.221521,0.199785,0.212615,0.161502,0.130831,0.055196,0.277072,0.558509,0.917037,0.850466,0.196389,0.152884,0.190200,0.158822,0.180593,0.150364,0.193793,0.140979,0.200084,0.135013,0.203866,0.096865,0.000000,0.000000,0.000000,0.000000,0.000000,0.000000,0.000000,0.000000,0.000000,0.000000,0.000000,0.000000,0.000000,0.000000,0.000000,0.000000,0.000000,0.000000,0.000000,0.000000,0.000000,0.000000,0.000000,0.000000,0.000000,0.000000,0.000000,0.000000,0.000000,0.000000,0.000000,0.000000,0.000000,0.000000,0.000000,0.000000,0.000000,0.000000,0.000000,0.000000,0.000000,0.000000,0.000000,0.000000,0.000000,0.000000,0.000000,0.000000,0.000000,0.000000,0.000000,0.000000,0.000000,0.000000,0.000000,0.000000,0.000000,0.000000,0.000000,0.000000,0.000000,0.000000,0.000000,0.000000,0.000000,0.000000,0.000000,0.000000,0.000000,0.000000
0.708395,0.845276,0.087036,0.181185,0.129476,0.168153,0.127302,0.157192,0.142212,0.147190,0.146494,0.147774,0.133409,0.150279,0.144141,0.146781,0.149878,0.145501,0.141935,0.148077,0.130936,0.140535,0.130433,0.140957,0.111667,0.129558,0.097357,0.100989,0.066538,0.080816,0.034178,0.047290,0.001887,0.010597,-0.002238,0.009624,0.010343,0.061516,0.077715,0.135805,0.143850,0.175125,0.184660,0.197237,0.195374,0.199270,0.197660,0.192165,0.196112,0.188609,0.198555,0.184797,0.194821,0.183569,0.192167,0.178137,0.189006,0.171399,0.187784,0.165454,0.175406,0.168628,0.171695,0.151454,0.169767,0.163522,0.171107,0.163138,0.164060,0.166648,0.170418,0.168038,0.164315,0.178305,0.165899,0.182972,0.172518,0.168613,0.169077,0.186126,0.184032,0.199323,0.197863,0.219328,0.205841,0.232494,0.227454,0.228844,0.212425,0.200676,0.196226,0.178941,0.189171,0.163387,0.188037,0.160218,0.175685,0.155678,0.185494,0.106850,0.078543,0.014469,0.311147,0.531258,0.908406,0.742822,0.150407,0.121195,0.147261,0.121965,0.136862,0.113697,0.139083,0.107432,0.145818,0.096857,0.173896,0.052831,0.000000,0.000000,0.000000,0.000000,0.000000,0.000000,0.000000,0.000000,0.000000,0.000000,0.000000,0.000000,0.000000,0.000000,0.000000,0.000000,0.000000,0.000000,0.000000,0.000000,0.000000,0.000000,0.000000,0.000000,0.000000,0.000000,0.000000,0.000000,0.000000,0.000000,0.000000,0.000000,0.000000,0.000000,0.000000,0.000000,0.000000,0.000000,0.000000,0.000000,0.000000,0.000000,0.000000,0.000000,0.000000,0.000000,0.000000,0.000000,0.000000,0.000000,0.000000,0.000000,0.000000,0.000000,0.000000,0.000000,0.000000,0.000000,0.000000,0.000000,0.000000,0.000000,0.000000,0.000000,0.000000,0.000000,0.000000,0.000000,0.000000,0.000000
0.720503,0.788289,0.109608,0.185982,0.139882,0.173335,0.134687,0.163773,0.136466,0.160407,0.137336,0.161149,0.145058,0.165906,0.139694,0.169017,0.139568,0.166228,0.146331,0.161824,0.139341,0.163634,0.125383,0.153887,0.106886,0.135402,0.093975,0.108746,0.063861,0.079443,0.032631,0.041628,0.001584,0.019840,0.000422,0.022991,0.014498,0.047723,0.070247,0.116795,0.140591,0.163471,0.179240,0.194062,0.192492,0.192826,0.202792,0.186177,0.194796,0.194425,0.183997,0.181636,0.184507,0.173280,0.183132,0.166815,0.172219,0.173496,0.165405,0.159859,0.161173,0.172359,0.159770,0.171542,0.166449,0.169421,0.149983,0.180371,0.165105,0.187824,0.163746,0.185195,0.175981,0.193110,0.169076,0.193186,0.165443,0.190357,0.176309,0.210706,0.198188,0.232226,0.202514,0.237211,0.211934,0.231271,0.208701,0.216065,0.197133,0.206925,0.179751,0.181019,0.169262,0.175050,0.156560,0.160490,0.151052,0.157590,0.124130,0.070655,0.021124,0.217131,0.411060,0.699781,0.615241,0.050969,0.080657,0.113184,0.100467,0.110974,0.099120,0.124047,0.092323,0.138292,0.067690,0.163108,0.016948,0.000000,0.000000,0.000000,0.000000,0.000000,0.000000,0.000000,0.000000,0.000000,0.000000,0.000000,0.000000,0.000000,0.000000,0.000000,0.000000,0.000000,0.000000,0.000000,0.000000,0.000000,0.000000,0.000000,0.000000,0.000000,0.000000,0.000000,0.000000,0.000000,0.000000,0.000000,0.000000,0.000000,0.000000,0.000000,0.000000,0.000000,0.000000,0.000000,0.000000,0.000000,0.000000,0.000000,0.000000,0.000000,0.000000,0.000000,0.000000,0.000000,0.000000,0.000000,0.000000,0.000000,0.000000,0.000000,0.000000,0.000000,0.000000,0.000000,0.000000,0.000000,0.000000,0.000000,0.000000,0.000000,0.000000,0.000000,0.000000,0.000000,0.000000,0.000000
0.729515,0.804625,0.057936,0.223770,0.169260,0.228897,0.171231,0.227911,0.184006,0.225007,0.191600,0.209938,0.194661,0.213873,0.190970,0.194420,0.193256,0.200598,0.202360,0.194612,0.200464,0.177969,0.193638,0.200919,0.187647,0.175698,0.171548,0.145319,0.166904,0.140503,0.125135,0.109828,0.108089,0.095883,0.054726,0.065883,0.049654,0.067092,0.085859,0.127394,0.151802,0.203965,0.209131,0.235274,0.223370,0.256930,0.246465,0.256862,0.240226,0.247701,0.218872,0.253314,0.235299,0.236841,0.223813,0.217652,0.210736,0.223924,0.216327,0.212182,0.209159,0.199921,0.212393,0.211291,0.226860,0.191226,0.215326,0.191392,0.221351,0.194260,0.210442,0.182204,0.218036,0.194329,0.214569,0.195854,0.223335,0.197594,0.201368,0.205124,0.231689,0.242627,0.249717,0.258153,0.255809,0.245444,0.228438,0.222388,0.203975,0.208769,0.200186,0.197276,0.191001,0.198967,0.192113,0.187007,0.202353,0.160968,0.109265,0.062269,0.365840,0.582592,0.962758,0.559021,-0.007601,0.149651,0.145307,0.158711,0.170436,0.157870,0.188731,0.161269,0.199598,0.139215,0.229072,0.087189,0.000000,0.000000,0.000000,0.000000,0.000000,0.000000,0.000000,0.000000,0.000000,0.000000,0.000000,0.000000,0.000000,0.000000,0.000000,0.000000,0.000000,0.000000,0.000000,0.000000,0.000000,0.000000,0.000000,0.000000,0.000000,0.000000,0.000000,0.000000,0.000000,0.000000,0.000000,0.000000,0.000000,0.000000,0.000000,0.000000,0.000000,0.000000,0.000000,0.000000,0.000000,0.000000,0.000000,0.000000,0.000000,0.000000,0.000000,0.000000,0.000000,0.000000,0.000000,0.000000,0.000000,0.000000,0.000000,0.000000,0.000000,0.000000,0.000000,0.000000,0.000000,0.000000,0.000000,0.000000,0.000000,0.000000,0.000000,0.000000,0.000000,0.000000,0.000000,0.000000
0.570994,0.432375,-0.001509,0.165827,0.116641,0.163987,0.137414,0.162160,0.150496,0.166245,0.152992,0.158489,0.160404,0.153849,0.154232,0.160170,0.167154,0.166525,0.163896,0.158042,0.169605,0.154104,0.166472,0.159166,0.153895,0.153774,0.144950,0.127559,0.121322,0.103096,0.087551,0.079681,0.058359,0.064054,0.053957,0.072461,0.091497,0.128767,0.147571,0.192100,0.197624,0.220133,0.209510,0.223404,0.210481,0.231540,0.207657,0.227201,0.206689,0.220635,0.208136,0.207084,0.201555,0.202238,0.197486,0.193888,0.199577,0.196469,0.193307,0.192090,0.197390,0.188388,0.198576,0.190737,0.206070,0.185597,0.205277,0.193178,0.206670,0.191945,0.208850,0.190912,0.213046,0.181100,0.210132,0.193771,0.216585,0.221798,0.239291,0.221694,0.251820,0.245525,0.250682,0.243045,0.232012,0.222299,0.214551,0.209171,0.210195,0.195432,0.205419,0.211687,0.201064,0.181789,0.118239,0.107394,0.382337,0.664562,0.961766,0.838039,0.285267,0.006456,0.052560,0.146680,0.165963,0.149516,0.171061,0.139515,0.175416,0.133741,0.194527,0.091650,0.000000,0.000000,0.000000,0.000000,0.000000,0.000000,0.000000,0.000000,0.000000,0.000000,0.000000,0.000000,0.000000,0.000000,0.000000,0.000000,0.000000,0.000000,0.000000,0.000000,0.000000,0.000000,0.000000,0.000000,0.000000,0.000000,0.000000,0.000000,0.000000,0.000000,0.000000,0.000000,0.000000,0.000000,0.000000,0.000000,0.000000,0.000000,0.000000,0.000000,0.000000,0.000000,0.000000,0.000000,0.000000,0.000000,0.000000,0.000000,0.000000,0.000000,0.000000,0.000000,0.000000,0.000000,0.000000,0.000000,0.000000,0.000000,0.000000,0.000000,0.000000,0.000000,0.000000,0.000000,0.000000,0.000000,0.000000,0.000000,0.000000,0.000000,0.000000,0.000000,0.000000,0.000000,0.000000,0.000000
0.743505,0.840691,0.188301,0.029708,0.040434,0.176188,0.141318,0.173705,0.146131,0.165480,0.146554,0.168659,0.148576,0.163642,0.156558,0.169559,0.173228,0.164971,0.171439,0.164867,0.165019,0.159330,0.159784,0.144879,0.146765,0.124115,0.125500,0.104805,0.095028,0.076057,0.068589,0.054610,0.057215,0.048372,0.044890,0.050231,0.067696,0.090685,0.134885,0.173818,0.192711,0.220810,0.217990,0.237929,0.223382,0.233688,0.227804,0.238365,0.218211,0.234110,0.210712,0.224131,0.211614,0.215930,0.204855,0.215923,0.197176,0.204030,0.201648,0.196889,0.202897,0.197923,0.200879,0.199828,0.199905,0.195169,0.214348,0.202581,0.216124,0.206301,0.223104,0.206630,0.226617,0.207325,0.218611,0.210142,0.234422,0.227708,0.246432,0.232677,0.261362,0.253706,0.269968,0.251284,0.236399,0.230518,0.222172,0.222328,0.221466,0.216565,0.216807,0.218198,0.208822,0.186654,0.108179,0.144314,0.421338,0.656870,0.930100,0.811823,0.207588,0.162917,0.191895,0.180729,0.189406,0.177278,0.193970,0.167807,0.199106,0.154455,0.228366,0.103960,0.000000,0.000000,0.000000,0.000000,0.000000,0.000000,0.000000,0.000000,0.000000,0.000000,0.000000,0.000000,0.000000,0.000000,0.000000,0.000000,0.000000,0.000000,0.000000,0.000000,0.000000,0.000000,0.000000,0.000000,0.000000,0.000000,0.000000,0.000000,0.000000,0.000000,0.000000,0.000000,0.000000,0.000000,0.000000,0.000000,0.000000,0.000000,0.000000,0.000000,0.000000,0.000000,0.000000,0.000000,0.000000,0.000000,0.000000,0.000000,0.000000,0.000000,0.000000,0.000000,0.000000,0.000000,0.000000,0.000000,0.000000,0.000000,0.000000,0.000000,0.000000,0.000000,0.000000,0.000000,0.000000,0.000000,0.000000,0.000000,0.000000,0.000000,0.000000,0.000000,0.000000,0.000000,0.000000,0.000000
0.716424,0.857320,0.113049,0.190794,0.138506,0.194337,0.141704,0.188491,0.146306,0.180669,0.146482,0.177082,0.157974,0.169913,0.162582,0.170989,0.166983,0.176392,0.163435,0.167349,0.168537,0.160374,0.158769,0.154713,0.144260,0.125949,0.127739,0.105783,0.102420,0.086761,0.073574,0.070243,0.052364,0.043810,0.053233,0.065892,0.060562,0.107260,0.122617,0.154755,0.164191,0.203387,0.186738,0.222199,0.199109,0.214103,0.196922,0.211327,0.184598,0.207949,0.191870,0.195487,0.180694,0.188584,0.177409,0.196537,0.165349,0.173169,0.170176,0.170638,0.169588,0.161889,0.164929,0.167776,0.165732,0.167299,0.173706,0.158364,0.167109,0.161476,0.168687,0.159296,0.179882,0.163939,0.161542,0.161598,0.168336,0.178621,0.182091,0.186661,0.177061,0.205258,0.192843,0.208001,0.174335,0.188665,0.155992,0.169477,0.141163,0.162761,0.138647,0.168947,0.132777,0.162230,0.115704,0.155617,0.108451,0.086432,0.013622,0.235062,0.365702,0.669273,0.535107,0.022840,0.083318,0.110761,0.104252,0.116404,0.118507,0.129065,0.099759,0.138255,0.092875,0.146680,0.051826,0.000000,0.000000,0.000000,0.000000,0.000000,0.000000,0.000000,0.000000,0.000000,0.000000,0.000000,0.000000,0.000000,0.000000,0.000000,0.000000,0.000000,0.000000,0.000000,0.000000,0.000000,0.000000,0.000000,0.000000,0.000000,0.000000,0.000000,0.000000,0.000000,0.000000,0.000000,0.000000,0.000000,0.000000,0.000000,0.000000,0.000000,0.000000,0.000000,0.000000,0.000000,0.000000,0.000000,0.000000,0.000000,0.000000,0.000000,0.000000,0.000000,0.000000,0.000000,0.000000,0.000000,0.000000,0.000000,0.000000,0.000000,0.000000,0.000000,0.000000,0.000000,0.000000,0.000000,0.000000,0.000000,0.000000,0.000000,0.000000,0.000000,0.000000,0.000000,0.000000,0.000000
0.713954,0.691222,-0.019650,0.146940,0.114339,0.160786,0.125558,0.180267,0.136205,0.160899,0.142198,0.163885,0.126140,0.179089,0.134300,0.186363,0.142937,0.172417,0.138760,0.180167,0.141259,0.181943,0.157302,0.165158,0.123379,0.160852,0.124721,0.145554,0.108070,0.104197,0.080968,0.074256,0.049754,0.051277,0.031662,0.003409,0.022097,0.017002,0.027294,0.062250,0.116923,0.120951,0.157716,0.180359,0.193938,0.187993,0.220363,0.195310,0.210696,0.199579,0.208700,0.201968,0.194374,0.184790,0.179707,0.186909,0.174144,0.182961,0.176044,0.180815,0.168504,0.186622,0.160774,0.187310,0.159125,0.179295,0.154356,0.189232,0.158296,0.177552,0.164487,0.197917,0.161025,0.195351,0.164821,0.180898,0.159878,0.184173,0.163614,0.192708,0.178362,0.200923,0.214413,0.216106,0.214212,0.244396,0.232299,0.231199,0.222733,0.211670,0.198251,0.194076,0.202351,0.198099,0.200999,0.201475,0.200642,0.203387,0.205619,0.222676,0.188393,0.131888,0.042660,0.308299,0.562260,0.932969,0.762564,0.079257,0.135384,0.192229,0.167012,0.187903,0.172111,0.205978,0.175089,0.223619,0.156270,0.253238,0.115461,0.000000,0.000000,0.000000,0.000000,0.000000,0.000000,0.000000,0.000000,0.000000,0.000000,0.000000,0.000000,0.000000,0.000000,0.000000,0.000000,0.000000,0.000000,0.000000,0.000000,0.000000,0.000000,0.000000,0.000000,0.000000,0.000000,0.000000,0.000000,0.000000,0.000000,0.000000,0.000000,0.000000,0.000000,0.000000,0.000000,0.000000,0.000000,0.000000,0.000000,0.000000,0.000000,0.000000,0.000000,0.000000,0.000000,0.000000,0.000000,0.000000,0.000000,0.000000,0.000000,0.000000,0.000000,0.000000,0.000000,0.000000,0.000000,0.000000,0.000000,0.000000,0.000000,0.000000,0.000000,0.000000,0.000000,0.000000,0.000000,0.000000
0.602189,0.578084,-0.019563,0.129426,0.103464,0.135552,0.105671,0.139306,0.119744,0.144364,0.128289,0.137344,0.137835,0.140626,0.151759,0.149743,0.148419,0.140850,0.153588,0.137490,0.144989,0.140151,0.133287,0.129139,0.138884,0.123277,0.106445,0.104970,0.082942,0.073146,0.050937,0.037675,0.015848,0.021849,0.002328,0.025030,0.021538,0.055996,0.075413,0.128923,0.134149,0.181467,0.182957,0.199372,0.188297,0.213810,0.190449,0.214419,0.205789,0.202713,0.190848,0.202377,0.184034,0.190832,0.192483,0.180689,0.189719,0.190753,0.181105,0.178264,0.178293,0.169943,0.180031,0.168811,0.182928,0.166781,0.192258,0.172049,0.182618,0.168888,0.198690,0.174785,0.188263,0.174345,0.188097,0.178820,0.193810,0.177281,0.193901,0.185255,0.193072,0.202478,0.220918,0.214008,0.228988,0.247741,0.233884,0.257299,0.225924,0.218834,0.217888,0.210496,0.202096,0.198022,0.190094,0.194923,0.195444,0.185195,0.187931,0.167632,0.106956,0.029152,0.253168,0.542338,0.917853,0.851284,0.180853,0.145795,0.166378,0.144975,0.153711,0.129455,0.161808,0.118520,0.165308,0.111976,0.183804,0.075242,0.000000,0.000000,0.000000,0.000000,0.000000,0.000000,0.000000,0.000000,0.000000,0.000000,0.000000,0.000000,0.000000,0.000000,0.000000,0.000000,0.000000,0.000000,0.000000,0.000000,0.000000,0.000000,0.000000,0.000000,0.000000,0.000000,0.000000,0.000000,0.000000,0.000000,0.000000,0.000000,0.000000,0.000000,0.000000,0.000000,0.000000,0.000000,0.000000,0.000000,0.000000,0.000000,0.000000,0.000000,0.000000,0.000000,0.000000,0.000000,0.000000,0.000000,0.000000,0.000000,0.000000,0.000000,0.000000,0.000000,0.000000,0.000000,0.000000,0.000000,0.000000,0.000000,0.000000,0.000000,0.000000,0.000000,0.000000,0.000000,0.000000,0.000000
0.706550,0.792243,0.091362,0.171877,0.121032,0.155199,0.114528,0.139242,0.123223,0.128911,0.124172,0.130199,0.126203,0.133328,0.135039,0.126847,0.142129,0.135001,0.140936,0.139956,0.138435,0.138888,0.136159,0.130042,0.128386,0.115589,0.107954,0.108429,0.092387,0.075634,0.059271,0.044509,0.023985,0.028654,0.003201,0.035335,0.021594,0.057999,0.067910,0.130183,0.135543,0.185573,0.179270,0.198220,0.193224,0.212504,0.185574,0.209997,0.194716,0.200074,0.186180,0.204733,0.184623,0.191852,0.184676,0.184299,0.182764,0.176776,0.172373,0.170638,0.173161,0.163221,0.172550,0.161015,0.166937,0.166834,0.180801,0.162067,0.187799,0.161574,0.180139,0.164637,0.187179,0.174143,0.182621,0.174823,0.189992,0.177654,0.188705,0.186677,0.193064,0.207106,0.213092,0.222912,0.235837,0.240106,0.229918,0.228138,0.199381,0.210893,0.193043,0.199812,0.183979,0.197982,0.172861,0.189265,0.170912,0.184094,0.161990,0.108185,0.040907,0.242896,0.520529,0.771042,1.004958,0.791168,0.173681,0.070312,0.165611,0.127929,0.164452,0.129854,0.169147,0.128374,0.180410,0.110067,0.206069,0.071002,0.000000,0.000000,0.000000,0.000000,0.000000,0.000000,0.000000,0.000000,0.000000,0.000000,0.000000,0.000000,0.000000,0.000000,0.000000,0.000000,0.000000,0.000000,0.000000,0.000000,0.000000,0.000000,0.000000,0.000000,0.000000,0.000000,0.000000,0.000000,0.000000,0.000000,0.000000,0.000000,0.000000,0.000000,0.000000,0.000000,0.000000,0.000000,0.000000,0.000000,0.000000,0.000000,0.000000,0.000000,0.000000,0.000000,0.000000,0.000000,0.000000,0.000000,0.000000,0.000000,0.000000,0.000000,0.000000,0.000000,0.000000,0.000000,0.000000,0.000000,0.000000,0.000000,0.000000,0.000000,0.000000,0.000000,0.000000,0.000000,0.000000,0.000000
0.719403,0.810689,0.100282,0.154202,0.153851,0.186243,0.159144,0.184944,0.164227,0.185876,0.169207,0.177482,0.177308,0.183942,0.183925,0.189357,0.190200,0.187100,0.201037,0.179936,0.184810,0.168129,0.177102,0.167361,0.167154,0.154019,0.152484,0.128720,0.117469,0.100828,0.084151,0.088587,0.076577,0.076035,0.055040,0.076334,0.071447,0.104184,0.130129,0.163323,0.165351,0.196420,0.181602,0.208120,0.185602,0.196006,0.185700,0.189892,0.178141,0.193352,0.174631,0.177310,0.170389,0.175514,0.157742,0.169342,0.167142,0.161894,0.167030,0.157852,0.155227,0.155065,0.159159,0.154191,0.167090,0.137557,0.158787,0.140743,0.162199,0.142691,0.165369,0.137274,0.171093,0.143977,0.153938,0.137828,0.170008,0.163642,0.186140,0.170657,0.171086,0.183220,0.201794,0.169245,0.174366,0.154635,0.143426,0.136288,0.144656,0.139153,0.134162,0.125581,0.133541,0.130942,0.144951,0.116328,0.093030,0.028068,0.202509,0.375738,0.669553,0.450021,-0.001469,0.110451,0.092250,0.103289,0.102502,0.103377,0.112190,0.090638,0.133229,0.088016,0.151112,0.033457,0.000000,0.000000,0.000000,0.000000,0.000000,0.000000,0.000000,0.000000,0.000000,0.000000,0.000000,0.000000,0.000000,0.000000,0.000000,0.000000,0.000000,0.000000,0.000000,0.000000,0.000000,0.000000,0.000000,0.000000,0.000000,0.000000,0.000000,0.000000,0.000000,0.000000,0.000000,0.000000,0.000000,0.000000,0.000000,0.000000,0.000000,0.000000,0.000000,0.000000,0.000000,0.000000,0.000000,0.000000,0.000000,0.000000,0.000000,0.000000,0.000000,0.000000,0.000000,0.000000,0.000000,0.000000,0.000000,0.000000,0.000000,0.000000,0.000000,0.000000,0.000000,0.000000,0.000000,0.000000,0.000000,0.000000,0.000000,0.000000,0.000000,0.000000,0.000000,0.000000,0.000000,0.000000
0.657298,0.511506,-0.018318,0.197178,0.102578,0.176231,0.119423,0.176022,0.127248,0.166149,0.147181,0.173115,0.143287,0.166360,0.149798,0.173511,0.162074,0.161543,0.151395,0.138903,0.150464,0.147246,0.148881,0.134691,0.129897,0.114867,0.113083,0.078485,0.092679,0.068170,0.064384,0.031925,0.029030,0.009393,0.021018,0.054826,0.081226,0.128174,0.158923,0.186601,0.194444,0.206125,0.194173,0.215211,0.190734,0.212858,0.182957,0.203108,0.186737,0.214540,0.175208,0.207132,0.176123,0.191621,0.163321,0.187945,0.168340,0.181662,0.162617,0.187646,0.167696,0.187354,0.179241,0.180066,0.188429,0.187716,0.178950,0.191992,0.192696,0.188411,0.182961,0.183853,0.193871,0.186999,0.213960,0.219155,0.230091,0.244195,0.259732,0.252998,0.247209,0.224694,0.227240,0.217676,0.211531,0.217274,0.209243,0.208826,0.205034,0.210448,0.197159,0.189429,0.093219,0.075196,0.176072,0.471956,0.570793,0.955247,0.747005,0.101731,0.135451,0.188289,0.159096,0.193318,0.154728,0.199002,0.153424,0.202990,0.145002,0.218186,0.106659,0.000000,0.000000,0.000000,0.000000,0.000000,0.000000,0.000000,0.000000,0.000000,0.000000,0.000000,0.000000,0.000000,0.000000,0.000000,0.000000,0.000000,0.000000,0.000000,0.000000,0.000000,0.000000,0.000000,0.000000,0.000000,0.000000,0.000000,0.000000,0.000000,0.000000,0.000000,0.000000,0.000000,0.000000,0.000000,0.000000,0.000000,0.000000,0.000000,0.000000,0.000000,0.000000,0.000000,0.000000,0.000000,0.000000,0.000000,0.000000,0.000000,0.000000,0.000000,0.000000,0.000000,0.000000,0.000000,0.000000,0.000000,0.000000,0.000000,0.000000,0.000000,0.000000,0.000000,0.000000,0.000000,0.000000,0.000000,0.000000,0.000000,0.000000,0.000000,0.000000,0.000000,0.000000,0.000000,0.000000,0.000000
0.624557,0.610372,-0.004305,0.140468,0.103641,0.141864,0.115083,0.133998,0.122008,0.133165,0.122058,0.133403,0.119800,0.137027,0.132552,0.133758,0.130979,0.148055,0.134718,0.143641,0.132512,0.145520,0.118194,0.140033,0.108257,0.124989,0.092969,0.097546,0.059510,0.062013,0.019941,0.032605,-0.000465,0.021670,0.016172,0.054682,0.083633,0.121052,0.141171,0.179064,0.178946,0.202781,0.205553,0.198629,0.199502,0.194161,0.202523,0.184343,0.199563,0.177253,0.193985,0.178767,0.185982,0.167048,0.179410,0.161943,0.182389,0.153124,0.169697,0.164894,0.168646,0.150438,0.167655,0.159618,0.157001,0.162674,0.166081,0.161052,0.163906,0.167882,0.162957,0.170972,0.166264,0.169112,0.165410,0.171921,0.177215,0.203365,0.198910,0.211184,0.223065,0.225267,0.224793,0.204221,0.203598,0.197006,0.190412,0.176088,0.187068,0.164624,0.189354,0.159660,0.188010,0.161711,0.174921,0.086182,0.083245,0.026198,0.358867,0.597893,0.996708,0.596310,0.115075,0.161660,0.145131,0.139999,0.146310,0.119738,0.147219,0.127251,0.148111,0.114217,0.173875,0.069091,0.000000,0.000000,0.000000,0.000000,0.000000,0.000000,0.000000,0.000000,0.000000,0.000000,0.000000,0.000000,0.000000,0.000000,0.000000,0.000000,0.000000,0.000000,0.000000,0.000000,0.000000,0.000000,0.000000,0.000000,0.000000,0.000000,0.000000,0.000000,0.000000,0.000000,0.000000,0.000000,0.000000,0.000000,0.000000,0.000000,0.000000,0.000000,0.000000,0.000000,0.000000,0.000000,0.000000,0.000000,0.000000,0.000000,0.000000,0.000000,0.000000,0.000000,0.000000,0.000000,0.000000,0.000000,0.000000,0.000000,0.000000,0.000000,0.000000,0.000000,0.000000,0.000000,0.000000,0.000000,0.000000,0.000000,0.000000,0.000000,0.000000,0.000000,0.000000,0.000000,0.000000,0.000000
0.740481,0.630980,0.066863,0.203864,0.116036,0.172735,0.122058,0.149829,0.125034,0.158800,0.120017,0.156372,0.127398,0.152963,0.134413,0.161186,0.133710,0.159902,0.124862,0.158673,0.124434,0.139798,0.121490,0.141663,0.098437,0.115675,0.085845,0.091060,0.053464,0.062586,0.024236,0.029790,0.005534,0.013145,0.017368,0.036002,0.075950,0.112724,0.124200,0.149498,0.175184,0.176403,0.199046,0.186039,0.197635,0.186011,0.190692,0.177120,0.183286,0.167101,0.188099,0.161784,0.170814,0.162866,0.169841,0.163761,0.169477,0.148977,0.158268,0.149147,0.156363,0.155004,0.150465,0.164181,0.156179,0.157912,0.165366,0.176591,0.159359,0.168713,0.164368,0.169256,0.164877,0.180474,0.185874,0.195492,0.198170,0.211405,0.218814,0.224143,0.228807,0.204911,0.202066,0.187137,0.182192,0.160603,0.178551,0.150740,0.180959,0.146788,0.171107,0.147448,0.157343,0.032055,0.073829,0.238465,0.423222,0.472434,0.806267,0.539026,0.070865,0.126679,0.120658,0.110790,0.136533,0.100294,0.133939,0.097056,0.146083,0.085679,0.160271,0.025524,0.000000,0.000000,0.000000,0.000000,0.000000,0.000000,0.000000,0.000000,0.000000,0.000000,0.000000,0.000000,0.000000,0.000000,0.000000,0.000000,0.000000,0.000000,0.000000,0.000000,0.000000,0.000000,0.000000,0.000000,0.000000,0.000000,0.000000,0.000000,0.000000,0.000000,0.000000,0.000000,0.000000,0.000000,0.000000,0.000000,0.000000,0.000000,0.000000,0.000000,0.000000,0.000000,0.000000,0.000000,0.000000,0.000000,0.000000,0.000000,0.000000,0.000000,0.000000,0.000000,0.000000,0.000000,0.000000,0.000000,0.000000,0.000000,0.000000,0.000000,0.000000,0.000000,0.000000,0.000000,0.000000,0.000000,0.000000,0.000000,0.000000,0.000000,0.000000,0.000000,0.000000,0.000000,0.000000,0.000000
0.749121,0.693395,0.084217,0.257732,0.160534,0.229965,0.183404,0.215009,0.180041,0.216350,0.185372,0.217433,0.173178,0.212729,0.187559,0.212346,0.179944,0.214118,0.172980,0.211822,0.178264,0.212290,0.164303,0.193920,0.143074,0.184274,0.133895,0.147652,0.106670,0.111823,0.062598,0.083360,0.050707,0.071572,0.057819,0.078803,0.093161,0.138544,0.162969,0.197764,0.199989,0.220556,0.222305,0.217538,0.218101,0.211261,0.218341,0.213777,0.208492,0.211193,0.213036,0.198444,0.204282,0.187568,0.196520,0.180396,0.171813,0.191009,0.183439,0.176749,0.171454,0.178300,0.175284,0.180933,0.154473,0.202333,0.169100,0.188012,0.151964,0.190369,0.147738,0.184561,0.144297,0.178476,0.157927,0.183510,0.180463,0.221133,0.182674,0.232217,0.216089,0.227167,0.196396,0.211675,0.184539,0.195853,0.177128,0.179200,0.157414,0.174947,0.166328,0.166544,0.164326,0.167267,0.134467,0.097276,0.061237,0.314439,0.504327,0.857135,0.479355,-0.009972,0.128694,0.124845,0.136567,0.125530,0.139213,0.158263,0.120258,0.157421,0.100205,0.188207,0.032452,0.000000,0.000000,0.000000,0.000000,0.000000,0.000000,0.000000,0.000000,0.000000,0.000000,0.000000,0.000000,0.000000,0.000000,0.000000,0.000000,0.000000,0.000000,0.000000,0.000000,0.000000,0.000000,0.000000,0.000000,0.000000,0.000000,0.000000,0.000000,0.000000,0.000000,0.000000,0.000000,0.000000,0.000000,0.000000,0.000000,0.000000,0.000000,0.000000,0.000000,0.000000,0.000000,0.000000,0.000000,0.000000,0.000000,0.000000,0.000000,0.000000,0.000000,0.000000,0.000000,0.000000,0.000000,0.000000,0.000000,0.000000,0.000000,0.000000,0.000000,0.000000,0.000000,0.000000,0.000000,0.000000,0.000000,0.000000,0.000000,0.000000,0.000000,0.000000,0.000000,0.000000,0.000000,0.000000
0.556702,0.373977,-0.037373,0.136133,0.078457,0.132860,0.080154,0.139476,0.101483,0.126353,0.094448,0.123238,0.097422,0.114331,0.103198,0.113899,0.110776,0.116872,0.111590,0.119651,0.115410,0.121680,0.127265,0.113066,0.129131,0.121332,0.120243,0.098986,0.104029,0.083018,0.074733,0.055000,0.053312,0.029646,0.029950,0.020547,0.029941,0.043208,0.059013,0.082244,0.123980,0.149901,0.160059,0.185618,0.183300,0.197030,0.195568,0.201983,0.195158,0.212294,0.189492,0.212029,0.188114,0.208382,0.189815,0.210498,0.187791,0.202735,0.197165,0.203049,0.181515,0.188995,0.183110,0.183020,0.171841,0.181791,0.173294,0.182575,0.180951,0.181062,0.189096,0.182042,0.185519,0.179466,0.193967,0.181500,0.200033,0.182192,0.198105,0.186750,0.211803,0.189084,0.228944,0.219881,0.237427,0.233847,0.262365,0.240654,0.252375,0.220755,0.233935,0.211846,0.224030,0.200638,0.224480,0.204144,0.216217,0.207821,0.219730,0.214519,0.215660,0.171332,0.114136,0.081233,0.318641,0.587497,0.905900,0.855046,0.233751,0.183589,0.190577,0.190317,0.184721,0.177475,0.182401,0.175498,0.196850,0.166486,0.211568,0.124304,0.000000,0.000000,0.000000,0.000000,0.000000,0.000000,0.000000,0.000000,0.000000,0.000000,0.000000,0.000000,0.000000,0.000000,0.000000,0.000000,0.000000,0.000000,0.000000,0.000000,0.000000,0.000000,0.000000,0.000000,0.000000,0.000000,0.000000,0.000000,0.000000,0.000000,0.000000,0.000000,0.000000,0.000000,0.000000,0.000000,0.000000,0.000000,0.000000,0.000000,0.000000,0.000000,0.000000,0.000000,0.000000,0.000000,0.000000,0.000000,0.000000,0.000000,0.000000,0.000000,0.000000,0.000000,0.000000,0.000000,0.000000,0.000000,0.000000,0.000000,0.000000,0.000000,0.000000,0.000000,0.000000,0.000000,0.000000,0.000000
0.738638,0.800515,0.097399,0.177897,0.110371,0.168976,0.108919,0.153595,0.107152,0.155606,0.116589,0.154562,0.114606,0.147795,0.115630,0.149930,0.130604,0.146843,0.123590,0.142151,0.126525,0.135746,0.126182,0.129440,0.110830,0.115663,0.105062,0.095612,0.086735,0.068279,0.056763,0.039297,0.030429,0.008324,0.016296,0.003496,0.015441,0.023841,0.055156,0.083521,0.118088,0.132912,0.150135,0.161771,0.185986,0.197618,0.196761,0.206142,0.203836,0.204869,0.199229,0.203708,0.193415,0.206799,0.187486,0.203517,0.187557,0.195898,0.177180,0.198928,0.176421,0.185181,0.168068,0.180891,0.173878,0.191380,0.177864,0.176110,0.178762,0.181940,0.176817,0.181815,0.182049,0.176151,0.191212,0.178923,0.194967,0.188684,0.189403,0.181585,0.205531,0.191370,0.227194,0.208335,0.232490,0.226335,0.264154,0.236662,0.248711,0.220560,0.236541,0.206676,0.218485,0.196778,0.215113,0.200959,0.209653,0.197633,0.203750,0.191173,0.182935,0.117506,0.063824,0.235944,0.525030,0.684451,0.989682,0.697522,0.136810,0.181811,0.166455,0.166103,0.158461,0.156674,0.164405,0.151886,0.175905,0.130939,0.207160,0.089321,0.000000,0.000000,0.000000,0.000000,0.000000,0.000000,0.000000,0.000000,0.000000,0.000000,0.000000,0.000000,0.000000,0.000000,0.000000,0.000000,0.000000,0.000000,0.000000,0.000000,0.000000,0.000000,0.000000,0.000000,0.000000,0.000000,0.000000,0.000000,0.000000,0.000000,0.000000,0.000000,0.000000,0.000000,0.000000,0.000000,0.000000,0.000000,0.000000,0.000000,0.000000,0.000000,0.000000,0.000000,0.000000,0.000000,0.000000,0.000000,0.000000,0.000000,0.000000,0.000000,0.000000,0.000000,0.000000,0.000000,0.000000,0.000000,0.000000,0.000000,0.000000,0.000000,0.000000,0.000000,0.000000,0.000000,0.000000,0.000000
0.738763,0.673703,0.055373,0.213363,0.114834,0.182738,0.113134,0.172549,0.118239,0.172018,0.121426,0.163618,0.132574,0.172696,0.138829,0.174210,0.143073,0.170055,0.152941,0.172450,0.134332,0.150692,0.140652,0.136762,0.128084,0.115907,0.108587,0.086569,0.070901,0.056035,0.049684,0.027241,0.031786,0.010205,0.028933,0.032852,0.065420,0.085031,0.134031,0.142533,0.164917,0.170897,0.189444,0.184806,0.196412,0.192324,0.191649,0.196286,0.186220,0.192014,0.181085,0.184731,0.170123,0.180407,0.163947,0.182112,0.180730,0.185720,0.163132,0.181339,0.156816,0.165078,0.150107,0.173813,0.152154,0.179394,0.168429,0.175317,0.172430,0.180107,0.171488,0.178562,0.176400,0.174590,0.181768,0.180510,0.177967,0.172094,0.191521,0.179197,0.201420,0.192638,0.212130,0.216286,0.231314,0.205330,0.221696,0.184610,0.204702,0.161858,0.182025,0.151357,0.192090,0.150519,0.178429,0.145368,0.183037,0.131407,0.121413,0.015110,0.187455,0.385075,0.672675,0.634842,0.083883,0.105180,0.132963,0.122208,0.133517,0.129598,0.131754,0.104215,0.140650,0.090537,0.172626,0.047354,0.000000,0.000000,0.000000,0.000000,0.000000,0.000000,0.000000,0.000000,0.000000,0.000000,0.000000,0.000000,0.000000,0.000000,0.000000,0.000000,0.000000,0.000000,0.000000,0.000000,0.000000,0.000000,0.000000,0.000000,0.000000,0.000000,0.000000,0.000000,0.000000,0.000000,0.000000,0.000000,0.000000,0.000000,0.000000,0.000000,0.000000,0.000000,0.000000,0.000000,0.000000,0.000000,0.000000,0.000000,0.000000,0.000000,0.000000,0.000000,0.000000,0.000000,0.000000,0.000000,0.000000,0.000000,0.000000,0.000000,0.000000,0.000000,0.000000,0.000000,0.000000,0.000000,0.000000,0.000000,0.000000,0.000000,0.000000,0.000000,0.000000,0.000000,0.000000,0.000000
0.736362,0.790368,0.029138,0.202241,0.138801,0.201087,0.147139,0.209769,0.137226,0.184914,0.140535,0.184033,0.153078,0.196805,0.144362,0.200155,0.150268,0.190273,0.161277,0.197885,0.157098,0.200168,0.151000,0.167900,0.138469,0.159759,0.131186,0.142501,0.100459,0.094514,0.064922,0.052034,0.040854,0.009944,0.022767,0.038165,0.066421,0.087775,0.140573,0.162037,0.206093,0.187649,0.220637,0.202695,0.220867,0.200160,0.222867,0.201122,0.228903,0.201358,0.215971,0.199010,0.203263,0.186268,0.199019,0.176926,0.189518,0.189519,0.175032,0.204286,0.198023,0.190997,0.173447,0.207764,0.190693,0.203215,0.190838,0.194928,0.186819,0.213491,0.185787,0.210291,0.178170,0.190372,0.205256,0.223560,0.230390,0.227319,0.245019,0.251116,0.259901,0.220843,0.225173,0.193210,0.205775,0.189999,0.235070,0.198099,0.216668,0.168013,0.220068,0.150112,0.216767,0.148236,0.151620,0.027825,0.325877,0.529648,0.971444,0.566151,0.010223,0.141864,0.151178,0.159518,0.157422,0.169810,0.171197,0.159902,0.197226,0.148579,0.226710,0.112125,0.000000,0.000000,0.000000,0.000000,0.000000,0.000000,0.000000,0.000000,0.000000,0.000000,0.000000,0.000000,0.000000,0.000000,0.000000,0.000000,0.000000,0.000000,0.000000,0.000000,0.000000,0.000000,0.000000,0.000000,0.000000,0.000000,0.000000,0.000000,0.000000,0.000000,0.000000,0.000000,0.000000,0.000000,0.000000,0.000000,0.000000,0.000000,0.000000,0.000000,0.000000,0.000000,0.000000,0.000000,0.000000,0.000000,0.000000,0.000000,0.000000,0.000000,0.000000,0.000000,0.000000,0.000000,0.000000,0.000000,0.000000,0.000000,0.000000,0.000000,0.000000,0.000000,0.000000,0.000000,0.000000,0.000000,0.000000,0.000000,0.000000,0.000000,0.000000,0.000000,0.000000,0.000000,0.000000,0.000000
0.554543,0.359216,-0.028570,0.121572,0.080556,0.122980,0.087681,0.131201,0.093965,0.128560,0.107306,0.128362,0.113256,0.138832,0.116455,0.135163,0.104704,0.131773,0.111688,0.135036,0.111268,0.133302,0.103401,0.125231,0.088068,0.100516,0.080267,0.081376,0.042296,0.052468,0.022809,0.030941,0.011969,0.034179,0.057963,0.089918,0.118557,0.151875,0.173809,0.176747,0.198023,0.186127,0.198380,0.196340,0.207488,0.197745,0.220470,0.186698,0.210342,0.194964,0.201783,0.187239,0.193242,0.180192,0.194690,0.177891,0.192302,0.190910,0.195079,0.193386,0.191948,0.189045,0.194150,0.193437,0.190898,0.204210,0.194497,0.203849,0.208849,0.209498,0.198354,0.214408,0.199710,0.216507,0.218117,0.228501,0.245164,0.244062,0.255898,0.269469,0.265572,0.263803,0.254977,0.235741,0.246954,0.227119,0.236181,0.222116,0.253095,0.222453,0.245112,0.213438,0.252700,0.196551,0.196956,0.076043,0.306244,0.568380,0.945624,0.749274,0.190228,0.202138,0.205801,0.187736,0.196480,0.182188,0.197521,0.181917,0.209172,0.179221,0.229597,0.146162,0.000000,0.000000,0.000000,0.000000,0.000000,0.000000,0.000000,0.000000,0.000000,0.000000,0.000000,0.000000,0.000000,0.000000,0.000000,0.000000,0.000000,0.000000,0.000000,0.000000,0.000000,0.000000,0.000000,0.000000,0.000000,0.000000,0.000000,0.000000,0.000000,0.000000,0.000000,0.000000,0.000000,0.000000,0.000000,0.000000,0.000000,0.000000,0.000000,0.000000,0.000000,0.000000,0.000000,0.000000,0.000000,0.000000,0.000000,0.000000,0.000000,0.000000,0.000000,0.000000,0.000000,0.000000,0.000000,0.000000,0.000000,0.000000,0.000000,0.000000,0.000000,0.000000,0.000000,0.000000,0.000000,0.000000,0.000000,0.000000,0.000000,0.000000,0.000000,0.000000,0.000000,0.000000,0.000000,0.000000
